Time,Channel A
(s),(V)

0.00000000,3.68877200
0.00666670,3.68862000
0.01333340,3.68495800
0.02000010,3.68251600
0.02666680,3.68785700
0.03333350,3.68511000
0.04000020,3.69655400
0.04666690,3.69136600
0.05333360,3.69533400
0.06000030,3.69274000
0.06666700,3.68755100
0.07333370,3.69365500
0.08000040,3.68404200
0.08666710,3.68511000
0.09333380,3.68648300
0.10000050,3.68175300
0.10666720,3.69731700
0.11333390,3.68800900
0.12000060,3.69426600
0.12666730,3.68892500
0.13333400,3.68648300
0.14000070,3.69243500
0.14666740,3.68266800
0.15333410,3.68831400
0.16000080,3.68968800
0.16666750,3.68160000
0.17333420,3.69121400
0.18000090,3.69228200
0.18666760,3.69029800
0.19333430,3.69487600
0.20000100,3.68785700
0.20666770,3.68984000
0.21333440,3.68541500
0.22000110,3.68953500
0.22666780,3.69090800
0.23333450,3.68236300
0.24000120,3.69487600
0.24666790,3.68831400
0.25333460,3.68770400
0.26000130,3.69655400
0.26666800,3.68297400
0.27333470,3.69090800
0.28000140,3.69136600
0.28666810,3.68495800
0.29333480,3.69045100
0.30000150,3.68343100
0.30666819,3.68953500
0.31333489,3.68526300
0.32000159,3.68953500
0.32666829,3.69274000
0.33333499,3.68511000
0.34000169,3.69274000
0.34666839,3.68465200
0.35333509,3.68923000
0.36000179,3.68862000
0.36666849,3.68526300
0.37333519,3.68572000
0.38000189,3.68480500
0.38666859,3.68923000
0.39333529,3.68038000
0.40000199,3.68892500
0.40666869,3.68266800
0.41333539,3.68068500
0.42000209,3.68709400
0.42666879,3.68007400
0.43333549,3.68572000
0.44000219,3.68266800
0.44666889,3.68602600
0.45333559,3.68724600
0.46000229,3.68663600
0.46666899,3.69518100
0.47333569,3.68495800
0.48000239,3.68907700
0.48666909,3.69258700
0.49333579,3.68388900
0.50000249,3.69731700
0.50666919,3.68785700
0.51333589,3.68862000
0.52000259,3.69197700
0.52666929,3.68907700
0.53333599,3.69487600
0.54000269,3.68923000
0.54666939,3.69502900
0.55333609,3.68785700
0.56000279,3.68892500
0.56666949,3.69655400
0.57333619,3.68587300
0.58000289,3.68953500
0.58666959,3.69243500
0.59333629,3.68800900
0.60000299,3.68892500
0.60666969,3.69075600
0.61333639,3.69029800
0.62000309,3.68846700
0.62666979,3.69762300
0.63333649,3.69167200
0.64000319,3.69029800
0.64666989,3.69380800
0.65333659,3.68953500
0.66000329,3.69197700
0.66666999,3.69121400
0.67333669,3.69228200
0.68000339,3.68999300
0.68667009,3.69731700
0.69333679,3.69228200
0.70000349,3.69106100
0.70667019,3.69274000
0.71333689,3.69167200
0.72000359,3.69212900
0.72667029,3.69289200
0.73333699,3.69487600
0.74000369,3.69014500
0.74667039,3.69228200
0.75333709,3.69472300
0.76000379,3.69258700
0.76667049,3.69869100
0.77333719,3.69365500
0.78000389,3.69197700
0.78667059,3.69747000
0.79333729,3.69167200
0.80000399,3.69350300
0.80667069,3.69609700
0.81333739,3.69396000
0.82000409,3.69365500
0.82667079,3.69533400
0.83333749,3.69899600
0.84000419,3.69502900
0.84667089,3.69792800
0.85333759,3.69808000
0.86000429,3.69212900
0.86667099,3.70601500
0.87333769,3.69380800
0.88000439,3.69655400
0.88667109,3.70021700
0.89333779,3.69212900
0.90000449,3.69792800
0.90667119,3.69518100
0.91333788,3.70647300
0.92000458,3.69853800
0.92667128,3.69731700
0.93333798,3.69380800
0.94000468,3.69212900
0.94667138,3.70616800
0.95333808,3.70036900
0.96000478,3.69991200
0.96667148,3.69594400
0.97333818,3.69014500
0.98000488,3.69853800
0.98667158,3.70128500
0.99333828,3.70387900
1.00000498,3.69670700
1.00667168,3.69472300
1.01333838,3.69121400
1.02000508,3.69579100
1.02667178,3.70510000
1.03333848,3.69899600
1.04000518,3.69579100
1.04667188,3.69426600
1.05333858,3.69335000
1.06000528,3.70281100
1.06667198,3.70220000
1.07333868,3.69930100
1.08000538,3.69274000
1.08667208,3.69350300
1.09333878,3.69792800
1.10000548,3.69975900
1.10667218,3.69594400
1.11333888,3.69365500
1.12000558,3.68617800
1.12667228,3.69670700
1.13333898,3.69655400
1.14000568,3.69914800
1.14667238,3.69289200
1.15333908,3.68984000
1.16000578,3.69274000
1.16667248,3.69258700
1.17333918,3.69594400
1.18000588,3.69121400
1.18667258,3.68800900
1.19333928,3.68846700
1.20000598,3.68984000
1.20667268,3.69701200
1.21333938,3.69212900
1.22000608,3.69380800
1.22667278,3.69075600
1.23333948,3.68526300
1.24000618,3.69274000
1.24667288,3.68846700
1.25333958,3.69106100
1.26000628,3.69228200
1.26667298,3.68465200
1.27333968,3.69029800
1.28000638,3.68999300
1.28667308,3.68923000
1.29333978,3.68923000
1.30000648,3.68968800
1.30667318,3.68984000
1.31333988,3.68755100
1.32000658,3.68968800
1.32667328,3.68511000
1.33333998,3.68724600
1.34000668,3.69106100
1.34667338,3.69106100
1.35334008,3.68739900
1.36000678,3.69121400
1.36667348,3.68617800
1.37334018,3.68739900
1.38000688,3.69426600
1.38667358,3.68709400
1.39334028,3.68800900
1.40000698,3.68770400
1.40667368,3.68755100
1.41334038,3.68633100
1.42000708,3.68755100
1.42667378,3.68968800
1.43334048,3.68099000
1.44000718,3.68968800
1.44667388,3.68800900
1.45334058,3.68236300
1.46000728,3.68984000
1.46667398,3.67946400
1.47334068,3.68419500
1.48000738,3.68846700
1.48667408,3.67885400
1.49334078,3.68862000
1.50000748,3.67885400
1.50667418,3.68221100
1.51334088,3.68388900
1.52000757,3.68327900
1.52667427,3.68953500
1.53334097,3.68541500
1.54000767,3.68572000
1.54667437,3.68587300
1.55334107,3.67671800
1.56000777,3.69045100
1.56667447,3.68099000
1.57334117,3.68358400
1.58000787,3.68602600
1.58667457,3.68404200
1.59334127,3.69151900
1.60000797,3.69014500
1.60667467,3.69365500
1.61334137,3.68602600
1.62000807,3.68877200
1.62667477,3.69136600
1.63334147,3.69014500
1.64000817,3.68678900
1.64667487,3.68266800
1.65334157,3.69045100
1.66000827,3.68526300
1.66667497,3.70479400
1.67334167,3.68511000
1.68000837,3.68877200
1.68667507,3.69960600
1.69334177,3.68480500
1.70000847,3.70372600
1.70667517,3.68450000
1.71334187,3.68541500
1.72000857,3.68175300
1.72667527,3.68221100
1.73334197,3.69518100
1.74000867,3.68739900
1.74667537,3.69884300
1.75334207,3.69335000
1.76000877,3.69167200
1.76667547,3.70220000
1.77334217,3.68602600
1.78000887,3.68663600
1.78667557,3.68007400
1.79334227,3.68648300
1.80000897,3.68526300
1.80667567,3.69045100
1.81334237,3.69701200
1.82000907,3.68572000
1.82667577,3.69975900
1.83334247,3.69487600
1.84000917,3.68846700
1.84667587,3.69228200
1.85334257,3.68297400
1.86000927,3.68587300
1.86667597,3.68602600
1.87334267,3.68862000
1.88000937,3.69029800
1.88667607,3.69289200
1.89334277,3.69869100
1.90000947,3.68831400
1.90667617,3.70006400
1.91334287,3.69655400
1.92000957,3.68297400
1.92667627,3.69380800
1.93334297,3.67793800
1.94000967,3.68892500
1.94667637,3.69212900
1.95334307,3.69289200
1.96000977,3.69960600
1.96667647,3.69350300
1.97334317,3.70372600
1.98000987,3.69457100
1.98667657,3.69640200
1.99334327,3.69258700
2.00000997,3.68465200
2.00667667,3.69106100
2.01334337,3.68495800
2.02001007,3.69624900
2.02667677,3.69426600
2.03334347,3.69899600
2.04001017,3.70098000
2.04667687,3.69212900
2.05334357,3.70174300
2.06001027,3.69228200
2.06667697,3.69075600
2.07334367,3.68923000
2.08001037,3.68495800
2.08667707,3.69350300
2.09334377,3.69045100
2.10001047,3.69640200
2.10667717,3.69792800
2.11334387,3.69274000
2.12001057,3.69991200
2.12667726,3.69136600
2.13334396,3.69243500
2.14001066,3.69243500
2.14667736,3.68678900
2.15334406,3.68633100
2.16001076,3.69075600
2.16667746,3.68953500
2.17334416,3.69396000
2.18001086,3.69594400
2.18667756,3.69533400
2.19334426,3.69350300
2.20001096,3.69472300
2.20667766,3.69045100
2.21334436,3.68526300
2.22001106,3.68800900
2.22667776,3.68999300
2.23334446,3.68617800
2.24001116,3.69670700
2.24667786,3.69212900
2.25334456,3.69518100
2.26001126,3.69716500
2.26667796,3.69212900
2.27334466,3.68984000
2.28001136,3.69167200
2.28667806,3.68877200
2.29334476,3.68617800
2.30001146,3.69090800
2.30667816,3.69151900
2.31334486,3.68877200
2.32001156,3.69487600
2.32667826,3.69212900
2.33334496,3.68907700
2.34001166,3.69167200
2.34667836,3.69136600
2.35334506,3.68236300
2.36001176,3.68953500
2.36667846,3.68877200
2.37334516,3.68572000
2.38001186,3.69258700
2.38667856,3.69014500
2.39334526,3.68724600
2.40001196,3.69014500
2.40667866,3.69106100
2.41334536,3.68709400
2.42001206,3.68846700
2.42667876,3.69228200
2.43334546,3.67946400
2.44001216,3.69014500
2.44667886,3.69167200
2.45334556,3.68633100
2.46001226,3.69731700
2.46667896,3.69243500
2.47334566,3.68953500
2.48001236,3.69258700
2.48667906,3.69472300
2.49334576,3.68999300
2.50001246,3.69274000
2.50667916,3.69228200
2.51334586,3.68785700
2.52001256,3.68984000
2.52667926,3.69808000
2.53334596,3.69533400
2.54001266,3.68831400
2.54667936,3.70372600
2.55334606,3.68511000
2.56001276,3.69167200
2.56667946,3.70632000
2.57334616,3.67366600
2.58001286,3.70204800
2.58667956,3.68663600
2.59334626,3.68892500
2.60001296,3.69991200
2.60667966,3.68984000
2.61334636,3.70052200
2.62001306,3.68663600
2.62667976,3.69747000
2.63334646,3.69853800
2.64001316,3.68755100
2.64667986,3.70662500
2.65334656,3.68266800
2.66001326,3.69655400
2.66667996,3.70082700
2.67334666,3.69228200
2.68001336,3.70006400
2.68668006,3.69380800
2.69334676,3.69853800
2.70001346,3.69014500
2.70668016,3.70052200
2.71334686,3.69731700
2.72001356,3.68877200
2.72668026,3.70235300
2.73334695,3.68862000
2.74001365,3.69762300
2.74668035,3.70128500
2.75334705,3.68984000
2.76001375,3.70021700
2.76668045,3.69274000
2.77334715,3.69640200
2.78001385,3.69502900
2.78668055,3.69014500
2.79334725,3.69487600
2.80001395,3.67610700
2.80668065,3.70403100
2.81334735,3.68785700
2.82001405,3.70021700
2.82668075,3.70220000
2.83334745,3.67473400
2.84001415,3.71013500
2.84668085,3.66023700
2.85334755,3.70616800
2.86001425,3.68205800
2.86668095,3.67656500
2.87334765,3.70494700
2.88001435,3.64711500
2.88668105,3.71257700
2.89334775,3.67976900
2.90001445,3.69151900
2.90668115,3.70220000
2.91334785,3.66588300
2.92001455,3.71059300
2.92668125,3.66725700
2.93334795,3.70403100
2.94001465,3.68572000
2.94668135,3.68327900
2.95334805,3.70403100
2.96001475,3.67839600
2.96668145,3.70052200
2.97334815,3.69335000
2.98001485,3.67976900
2.98668155,3.70738900
2.99334825,3.68297400
3.00001495,3.69991200
3.00668165,3.69304500
3.01334835,3.68633100
3.02001505,3.70510000
3.02668175,3.67961700
3.03334845,3.70677800
3.04001515,3.70006400
3.04668185,3.68266800
3.05334855,3.71410300
3.06001525,3.67366600
3.06668195,3.70586300
3.07334865,3.69731700
3.08001535,3.68038000
3.08668205,3.71120300
3.09334875,3.68678900
3.10001545,3.70754100
3.10668215,3.69121400
3.11334885,3.70143700
3.12001555,3.69502900
3.12668225,3.70006400
3.13334895,3.70540500
3.14001565,3.68495800
3.14668235,3.70632000
3.15334905,3.70387900
3.16001575,3.68633100
3.16668245,3.72005400
3.17334915,3.67397100
3.18001585,3.70296300
3.18668255,3.71105100
3.19334925,3.66252600
3.20001595,3.71807000
3.20668265,3.65855900
3.21334935,3.69380800
3.22001605,3.71272900
3.22668275,3.67076600
3.23334945,3.72234200
3.24001615,3.67412300
3.24668285,3.70922000
3.25334955,3.70326900
3.26001625,3.69869100
3.26668295,3.72341100
3.27334965,3.66588300
3.28001635,3.72417400
3.28668305,3.66344200
3.29334975,3.69930100
3.30001645,3.71532300
3.30668315,3.63353400
3.31334985,3.70708300
3.32001655,3.63200800
3.32668325,3.70052200
3.33334995,3.69350300
3.34001664,3.66420500
3.34668334,3.72264800
3.35335004,3.66222100
3.36001674,3.71654400
3.36668344,3.70296300
3.37335014,3.69396000
3.38001684,3.71837500
3.38668354,3.67946400
3.39335024,3.70983000
3.40001694,3.70052200
3.40668364,3.70281100
3.41335034,3.71028800
3.42001704,3.69396000
3.42668374,3.71562900
3.43335044,3.69853800
3.44001714,3.71272900
3.44668384,3.70845700
3.45335054,3.70082700
3.46001724,3.70738900
3.46668394,3.70006400
3.47335064,3.70586300
3.48001734,3.70769400
3.48668404,3.70784600
3.49335074,3.70891500
3.50001744,3.70876200
3.50668414,3.71028800
3.51335084,3.70265800
3.52001754,3.70647300
3.52668424,3.70372600
3.53335094,3.70357400
3.54001764,3.70601500
3.54668434,3.70937200
3.55335104,3.70540500
3.56001774,3.70891500
3.56668444,3.70906700
3.57335114,3.70159000
3.58001784,3.71044000
3.58668454,3.70159000
3.59335124,3.70555700
3.60001794,3.70601500
3.60668464,3.70296300
3.61335134,3.70967700
3.62001804,3.70555700
3.62668474,3.71425500
3.63335144,3.70998300
3.64001814,3.70769400
3.64668484,3.71456000
3.65335154,3.70372600
3.66001824,3.70983000
3.66668494,3.70723600
3.67335164,3.70525200
3.68001834,3.70998300
3.68668504,3.70784600
3.69335174,3.71730700
3.70001844,3.71089800
3.70668514,3.71623900
3.71335184,3.71242400
3.72001854,3.70754100
3.72668524,3.71410300
3.73335194,3.70372600
3.74001864,3.70830400
3.74668534,3.70891500
3.75335204,3.71135600
3.76001874,3.71135600
3.76668544,3.71257700
3.77335214,3.71471300
3.78001884,3.70891500
3.78668554,3.70998300
3.79335224,3.70601500
3.80001894,3.70662500
3.80668564,3.70647300
3.81335234,3.70586300
3.82001904,3.70922000
3.82668574,3.70586300
3.83335244,3.71395000
3.84001914,3.71181400
3.84668584,3.70647300
3.85335254,3.71288200
3.86001924,3.69899600
3.86668594,3.70830400
3.87335264,3.70464200
3.88001934,3.70510000
3.88668604,3.71044000
3.89335274,3.70479400
3.90001944,3.71166100
3.90668614,3.70357400
3.91335284,3.71227100
3.92001954,3.70967700
3.92668624,3.70342100
3.93335294,3.70998300
3.94001964,3.69914800
3.94668633,3.70616800
3.95335303,3.70418400
3.96001973,3.70769400
3.96668643,3.70708300
3.97335313,3.70708300
3.98001983,3.71364500
3.98668653,3.70403100
3.99335323,3.71227100
4.00001993,3.70296300
4.00668663,3.70418400
4.01335333,3.70845700
4.02002003,3.70265800
4.02668673,3.71120300
4.03335343,3.70372600
4.04002013,3.71120300
4.04668683,3.70799900
4.05335353,3.70632000
4.06002023,3.71303400
4.06668693,3.69838500
4.07335363,3.70784600
4.08002033,3.70372600
4.08668703,3.70159000
4.09335373,3.70723600
4.10002043,3.70235300
4.10668713,3.70860900
4.11335383,3.70265800
4.12002053,3.70723600
4.12668723,3.70830400
4.13335393,3.69853800
4.14002063,3.70906700
4.14668733,3.70128500
4.15335403,3.70174300
4.16002073,3.70860900
4.16668743,3.70021700
4.17335413,3.70433700
4.18002083,3.70632000
4.18668753,3.70418400
4.19335423,3.70586300
4.20002093,3.70601500
4.20668763,3.70342100
4.21335433,3.70387900
4.22002103,3.70174300
4.22668773,3.70464200
4.23335443,3.70159000
4.24002113,3.70616800
4.24668783,3.70601500
4.25335453,3.69853800
4.26002123,3.70418400
4.26668793,3.70494700
4.27335463,3.69792800
4.28002133,3.70723600
4.28668803,3.70082700
4.29335473,3.69594400
4.30002143,3.70525200
4.30668813,3.70372600
4.31335483,3.69884300
4.32002153,3.70632000
4.32668823,3.70143700
4.33335493,3.70128500
4.34002163,3.70387900
4.34668833,3.70372600
4.35335503,3.70250600
4.36002173,3.70036900
4.36668843,3.70616800
4.37335513,3.69838500
4.38002183,3.70235300
4.38668853,3.70662500
4.39335523,3.69594400
4.40002193,3.70632000
4.40668863,3.70296300
4.41335533,3.70265800
4.42002203,3.70464200
4.42668873,3.70479400
4.43335543,3.70342100
4.44002213,3.70281100
4.44668883,3.70479400
4.45335553,3.70235300
4.46002223,3.70265800
4.46668893,3.70845700
4.47335563,3.70052200
4.48002233,3.70662500
4.48668903,3.70830400
4.49335573,3.70052200
4.50002243,3.70586300
4.50668913,3.71257700
4.51335583,3.70281100
4.52002253,3.70555700
4.52668923,3.70845700
4.53335593,3.70052200
4.54002263,3.70830400
4.54668933,3.70906700
4.55335602,3.70632000
4.56002272,3.70510000
4.56668942,3.70860900
4.57335612,3.70677800
4.58002282,3.70021700
4.58668952,3.70937200
4.59335622,3.70387900
4.60002292,3.70250600
4.60668962,3.71211900
4.61335632,3.70174300
4.62002302,3.70998300
4.62668972,3.70799900
4.63335642,3.70586300
4.64002312,3.71105100
4.64668982,3.70326900
4.65335652,3.70906700
4.66002322,3.70326900
4.66668992,3.70510000
4.67335662,3.70967700
4.68002332,3.70159000
4.68669002,3.71166100
4.69335672,3.70860900
4.70002342,3.70433700
4.70669012,3.71334000
4.71335682,3.70403100
4.72002352,3.70616800
4.72669022,3.70662500
4.73335692,3.70494700
4.74002362,3.70845700
4.74669032,3.70525200
4.75335702,3.70967700
4.76002372,3.70464200
4.76669042,3.71150900
4.77335712,3.71379700
4.78002382,3.70738900
4.78669052,3.71166100
4.79335722,3.70525200
4.80002392,3.70662500
4.80669062,3.71135600
4.81335732,3.70662500
4.82002402,3.71181400
4.82669072,3.71013500
4.83335742,3.70830400
4.84002412,3.71211900
4.84669082,3.71028800
4.85335752,3.71211900
4.86002422,3.70738900
4.86669092,3.70830400
4.87335762,3.71181400
4.88002432,3.70662500
4.88669102,3.70983000
4.89335772,3.71227100
4.90002442,3.70647300
4.90669112,3.71395000
4.91335782,3.71242400
4.92002452,3.71044000
4.92669122,3.71364500
4.93335792,3.70723600
4.94002462,3.71181400
4.94669132,3.70891500
4.95335802,3.71181400
4.96002472,3.71334000
4.96669142,3.70555700
4.97335812,3.71471300
4.98002482,3.70922000
4.98669152,3.71089800
4.99335822,3.71669700
5.00002492,3.70540500
5.00669162,3.71547600
5.01335832,3.71120300
5.02002502,3.71013500
5.02669172,3.71395000
5.03335842,3.70830400
5.04002512,3.71166100
5.04669182,3.71349200
5.05335852,3.71379700
5.06002522,3.71501800
5.06669192,3.71089800
5.07335862,3.71517100
5.08002532,3.71105100
5.08669202,3.71547600
5.09335872,3.71349200
5.10002542,3.71105100
5.10669212,3.71181400
5.11335882,3.71181400
5.12002552,3.71501800
5.12669222,3.71410300
5.13335892,3.71364500
5.14002562,3.71471300
5.14669232,3.71181400
5.15335902,3.71486500
5.16002571,3.71486500
5.16669241,3.71334000
5.17335911,3.71608600
5.18002581,3.71120300
5.18669251,3.71532300
5.19335921,3.71410300
5.20002591,3.71272900
5.20669261,3.71761200
5.21335931,3.71028800
5.22002601,3.71562900
5.22669271,3.71623900
5.23335941,3.71303400
5.24002611,3.71654400
5.24669281,3.71227100
5.25335951,3.71379700
5.26002621,3.71288200
5.26669291,3.71257700
5.27335961,3.71303400
5.28002631,3.71395000
5.28669301,3.71257700
5.29335971,3.71456000
5.30002641,3.71608600
5.30669311,3.71471300
5.31335981,3.71501800
5.32002651,3.71120300
5.32669321,3.71730700
5.33335991,3.71089800
5.34002661,3.71410300
5.34669331,3.71837500
5.35336001,3.70601500
5.36002671,3.72112200
5.36669341,3.71105100
5.37336011,3.71334000
5.38002681,3.71746000
5.38669351,3.70906700
5.39336021,3.72112200
5.40002691,3.71181400
5.40669361,3.71623900
5.41336031,3.71669700
5.42002701,3.70357400
5.42669371,3.72249500
5.43336041,3.70922000
5.44002711,3.71913800
5.44669381,3.71562900
5.45336051,3.70723600
5.46002721,3.71990100
5.46669391,3.71166100
5.47336061,3.71456000
5.48002731,3.71425500
5.48669401,3.71547600
5.49336071,3.71684900
5.50002741,3.71303400
5.50669411,3.71959600
5.51336081,3.71471300
5.52002751,3.71837500
5.52669421,3.71868000
5.53336091,3.71227100
5.54002761,3.71761200
5.54669431,3.71623900
5.55336101,3.71395000
5.56002771,3.71425500
5.56669441,3.71654400
5.57336111,3.71547600
5.58002781,3.71715500
5.58669451,3.71959600
5.59336121,3.71547600
5.60002791,3.71669700
5.60669461,3.71608600
5.61336131,3.71532300
5.62002801,3.71410300
5.62669471,3.71654400
5.63336141,3.71425500
5.64002811,3.71456000
5.64669481,3.71547600
5.65336151,3.71501800
5.66002821,3.71395000
5.66669491,3.71547600
5.67336161,3.71257700
5.68002831,3.71257700
5.68669501,3.71059300
5.69336171,3.71334000
5.70002841,3.70845700
5.70669511,3.71608600
5.71336181,3.71974800
5.72002851,3.71013500
5.72669521,3.71257700
5.73336191,3.70922000
5.74002861,3.70998300
5.74669531,3.71089800
5.75336201,3.70922000
5.76002871,3.70738900
5.76669540,3.70677800
5.77336210,3.70876200
5.78002880,3.70647300
5.78669550,3.70738900
5.79336220,3.70769400
5.80002890,3.70479400
5.80669560,3.70403100
5.81336230,3.71028800
5.82002900,3.70265800
5.82669570,3.69853800
5.83336240,3.70998300
5.84002910,3.69655400
5.84669580,3.70967700
5.85336250,3.70677800
5.86002920,3.69869100
5.86669590,3.70906700
5.87336260,3.69747000
5.88002930,3.70876200
5.88669600,3.70586300
5.89336270,3.70036900
5.90002940,3.70708300
5.90669610,3.69396000
5.91336280,3.70983000
5.92002950,3.70372600
5.92669620,3.70082700
5.93336290,3.71028800
5.94002960,3.69609700
5.94669630,3.70998300
5.95336300,3.70204800
5.96002970,3.70403100
5.96669640,3.70647300
5.97336310,3.69792800
5.98002980,3.71044000
5.98669650,3.70021700
5.99336320,3.70479400
6.00002990,3.70708300
6.00669660,3.69502900
6.01336330,3.71028800
6.02003000,3.70021700
6.02669670,3.70662500
6.03336340,3.70082700
6.04003010,3.69640200
6.04669680,3.70708300
6.05336350,3.68617800
6.06003020,3.71395000
6.06669690,3.70250600
6.07336360,3.70204800
6.08003030,3.71272900
6.08669700,3.69884300
6.09336370,3.70830400
6.10003040,3.70494700
6.10669710,3.70326900
6.11336380,3.71257700
6.12003050,3.70281100
6.12669720,3.71517100
6.13336390,3.70555700
6.14003060,3.70555700
6.14669730,3.71288200
6.15336400,3.69975900
6.16003070,3.71135600
6.16669740,3.70708300
6.17336410,3.70021700
6.18003080,3.71059300
6.18669750,3.70769400
6.19336420,3.70922000
6.20003090,3.71013500
6.20669760,3.70723600
6.21336430,3.70662500
6.22003100,3.70799900
6.22669770,3.70510000
6.23336440,3.70296300
6.24003110,3.70357400
6.24669780,3.70967700
6.25336450,3.70235300
6.26003120,3.70891500
6.26669790,3.71181400
6.27336460,3.70494700
6.28003130,3.71288200
6.28669800,3.71044000
6.29336470,3.70845700
6.30003140,3.70998300
6.30669810,3.70784600
6.31336480,3.71044000
6.32003150,3.70754100
6.32669820,3.71517100
6.33336490,3.71120300
6.34003160,3.71272900
6.34669830,3.71303400
6.35336500,3.70922000
6.36003170,3.71227100
6.36669839,3.71059300
6.37336509,3.71150900
6.38003179,3.71166100
6.38669849,3.71486500
6.39336519,3.71257700
6.40003189,3.71288200
6.40669859,3.71730700
6.41336529,3.70876200
6.42003199,3.71211900
6.42669869,3.71456000
6.43336539,3.70998300
6.44003209,3.71166100
6.44669879,3.71166100
6.45336549,3.71028800
6.46003219,3.71028800
6.46669889,3.71364500
6.47336559,3.71257700
6.48003229,3.70922000
6.48669899,3.71395000
6.49336569,3.70708300
6.50003239,3.70799900
6.50669909,3.71654400
6.51336579,3.70922000
6.52003249,3.70922000
6.52669919,3.71715500
6.53336589,3.70754100
6.54003259,3.71028800
6.54669929,3.71532300
6.55336599,3.70632000
6.56003269,3.71150900
6.56669939,3.71120300
6.57336609,3.70464200
6.58003279,3.71593400
6.58669949,3.70510000
6.59336619,3.71105100
6.60003289,3.70891500
6.60669959,3.70357400
6.61336629,3.71639200
6.62003299,3.70128500
6.62669969,3.71425500
6.63336639,3.70891500
6.64003309,3.70357400
6.64669979,3.71425500
6.65336649,3.70021700
6.66003319,3.70998300
6.66669989,3.70464200
6.67336659,3.70281100
6.68003329,3.70967700
6.68669999,3.70296300
6.69336669,3.71303400
6.70003339,3.70586300
6.70670009,3.70784600
6.71336679,3.70922000
6.72003349,3.70235300
6.72670019,3.71456000
6.73336689,3.70418400
6.74003359,3.70769400
6.74670029,3.71257700
6.75336699,3.70372600
6.76003369,3.71181400
6.76670039,3.70677800
6.77336709,3.71059300
6.78003379,3.70906700
6.78670049,3.70769400
6.79336719,3.71272900
6.80003389,3.70143700
6.80670059,3.70998300
6.81336729,3.70738900
6.82003399,3.70601500
6.82670069,3.71257700
6.83336739,3.70616800
6.84003409,3.71089800
6.84670079,3.70876200
6.85336749,3.70586300
6.86003419,3.70662500
6.86670089,3.70235300
6.87336759,3.70220000
6.88003429,3.69731700
6.88670099,3.69808000
6.89336769,3.69960600
6.90003439,3.69777500
6.90670109,3.70021700
6.91336779,3.70143700
6.92003449,3.69853800
6.92670119,3.69792800
6.93336789,3.69853800
6.94003459,3.69151900
6.94670129,3.69655400
6.95336799,3.69396000
6.96003469,3.69380800
6.96670139,3.70143700
6.97336808,3.70281100
6.98003478,3.68572000
6.98670148,3.68923000
6.99336818,3.69548600
7.00003488,3.69884300
7.00670158,3.69396000
7.01336828,3.69670700
7.02003498,3.69655400
7.02670168,3.69396000
7.03336838,3.70204800
7.04003508,3.70036900
7.04670178,3.70494700
7.05336848,3.70540500
7.06003518,3.70128500
7.06670188,3.70677800
7.07336858,3.70601500
7.08003528,3.70296300
7.08670198,3.70433700
7.09336868,3.70860900
7.10003538,3.69533400
7.10670208,3.71349200
7.11336878,3.70143700
7.12003548,3.70906700
7.12670218,3.71227100
7.13336888,3.70204800
7.14003558,3.71852800
7.14670228,3.69884300
7.15336898,3.70677800
7.16003568,3.71059300
7.16670238,3.68953500
7.17336908,3.71486500
7.18003578,3.69960600
7.18670248,3.70830400
7.19336918,3.71272900
7.20003588,3.69792800
7.20670258,3.71623900
7.21336928,3.69792800
7.22003598,3.70830400
7.22670268,3.70998300
7.23336938,3.69502900
7.24003608,3.71028800
7.24670278,3.68450000
7.25336948,3.71059300
7.26003618,3.70021700
7.26670288,3.70540500
7.27336958,3.70998300
7.28003628,3.69914800
7.28670298,3.70784600
7.29336968,3.70159000
7.30003638,3.70296300
7.30670308,3.70555700
7.31336978,3.70296300
7.32003648,3.70494700
7.32670318,3.70143700
7.33336988,3.70662500
7.34003658,3.70433700
7.34670328,3.70754100
7.35336998,3.70799900
7.36003668,3.70204800
7.36670338,3.70922000
7.37337008,3.70342100
7.38003678,3.70540500
7.38670348,3.70494700
7.39337018,3.70662500
7.40003688,3.70586300
7.40670358,3.71089800
7.41337028,3.70769400
7.42003698,3.70540500
7.42670368,3.70845700
7.43337038,3.70555700
7.44003708,3.70677800
7.44670378,3.70891500
7.45337048,3.70784600
7.46003718,3.70998300
7.46670388,3.70937200
7.47337058,3.71303400
7.48003728,3.70677800
7.48670398,3.71150900
7.49337068,3.70479400
7.50003738,3.70586300
7.50670408,3.71013500
7.51337078,3.69960600
7.52003748,3.70906700
7.52670418,3.70616800
7.53337088,3.71013500
7.54003758,3.70983000
7.54670428,3.70983000
7.55337098,3.70937200
7.56003768,3.70113200
7.56670438,3.70326900
7.57337108,3.70433700
7.58003777,3.70006400
7.58670447,3.70998300
7.59337117,3.70296300
7.60003787,3.70708300
7.60670457,3.70799900
7.61337127,3.70784600
7.62003797,3.70540500
7.62670467,3.70540500
7.63337137,3.70372600
7.64003807,3.69548600
7.64670477,3.70464200
7.65337147,3.70021700
7.66003817,3.70387900
7.66670487,3.70357400
7.67337157,3.70296300
7.68003827,3.70464200
7.68670497,3.70128500
7.69337167,3.70418400
7.70003837,3.69609700
7.70670507,3.69808000
7.71337177,3.69808000
7.72003847,3.69411300
7.72670517,3.70220000
7.73337187,3.69960600
7.74003857,3.69991200
7.74670527,3.69853800
7.75337197,3.69960600
7.76003867,3.70143700
7.76670537,3.69502900
7.77337207,3.70021700
7.78003877,3.69258700
7.78670547,3.69304500
7.79337217,3.69960600
7.80003887,3.69518100
7.80670557,3.70128500
7.81337227,3.70021700
7.82003897,3.69884300
7.82670567,3.70281100
7.83337237,3.69884300
7.84003907,3.70296300
7.84670577,3.69869100
7.85337247,3.69853800
7.86003917,3.70235300
7.86670587,3.69762300
7.87337257,3.70601500
7.88003927,3.70326900
7.88670597,3.69975900
7.89337267,3.70967700
7.90003937,3.70357400
7.90670607,3.70525200
7.91337277,3.70738900
7.92003947,3.69701200
7.92670617,3.70601500
7.93337287,3.70235300
7.94003957,3.70708300
7.94670627,3.70662500
7.95337297,3.70357400
7.96003967,3.71044000
7.96670637,3.70326900
7.97337307,3.70937200
7.98003977,3.70891500
7.98670647,3.69960600
7.99337317,3.70922000
8.00003987,3.70113200
8.00670657,3.69838500
8.01337327,3.71547600
8.02003997,3.68343100
8.02670667,3.71150900
8.03337337,3.70738900
8.04004007,3.69274000
8.04670677,3.71974800
8.05337347,3.67015600
8.06004017,3.70876200
8.06670687,3.70464200
8.07337357,3.68633100
8.08004027,3.71562900
8.08670697,3.68450000
8.09337367,3.71242400
8.10004037,3.70479400
8.10670707,3.70372600
8.11337377,3.71807000
8.12004047,3.68541500
8.12670717,3.71791700
8.13337387,3.67458100
8.14004057,3.70052200
8.14670727,3.71349200
8.15337397,3.66512000
8.16004067,3.71501800
8.16670737,3.65352300
8.17337407,3.70830400
8.18004077,3.71410300
8.18670746,3.68129500
8.19337416,3.71852800
8.20004086,3.66786700
8.20670756,3.71150900
8.21337426,3.70830400
8.22004096,3.68739900
8.22670766,3.72005400
8.23337436,3.68297400
8.24004106,3.71593400
8.24670776,3.71044000
8.25337446,3.70799900
8.26004116,3.71883300
8.26670786,3.70296300
8.27337456,3.71761200
8.28004126,3.70494700
8.28670796,3.71013500
8.29337466,3.71715500
8.30004136,3.70204800
8.30670806,3.71959600
8.31337476,3.70494700
8.32004146,3.71120300
8.32670816,3.71501800
8.33337486,3.70830400
8.34004156,3.71303400
8.34670826,3.71013500
8.35337496,3.70983000
8.36004166,3.70860900
8.36670836,3.71059300
8.37337506,3.71135600
8.38004176,3.70738900
8.38670846,3.71471300
8.39337516,3.70922000
8.40004186,3.70738900
8.40670856,3.71334000
8.41337526,3.70555700
8.42004196,3.71120300
8.42670866,3.71272900
8.43337536,3.70601500
8.44004206,3.71242400
8.44670876,3.70830400
8.45337546,3.70784600
8.46004216,3.70464200
8.46670886,3.70662500
8.47337556,3.70906700
8.48004226,3.70586300
8.48670896,3.70891500
8.49337566,3.70677800
8.50004236,3.70479400
8.50670906,3.71303400
8.51337576,3.70159000
8.52004246,3.70937200
8.52670916,3.70616800
8.53337586,3.70204800
8.54004256,3.71044000
8.54670926,3.69655400
8.55337596,3.71242400
8.56004266,3.70723600
8.56670936,3.70677800
8.57337606,3.70967700
8.58004276,3.70586300
8.58670946,3.70647300
8.59337616,3.70677800
8.60004286,3.70372600
8.60670956,3.70769400
8.61337626,3.70418400
8.62004296,3.70281100
8.62670966,3.70784600
8.63337636,3.70616800
8.64004306,3.70403100
8.64670976,3.71044000
8.65337646,3.70494700
8.66004316,3.70891500
8.66670986,3.70799900
8.67337656,3.70510000
8.68004326,3.70616800
8.68670996,3.70586300
8.69337666,3.70464200
8.70004336,3.70204800
8.70671006,3.70860900
8.71337676,3.70723600
8.72004346,3.70479400
8.72671016,3.71013500
8.73337686,3.70662500
8.74004356,3.70967700
8.74671026,3.70799900
8.75337696,3.70586300
8.76004366,3.70677800
8.76671036,3.70479400
8.77337706,3.70784600
8.78004376,3.70647300
8.78671046,3.70998300
8.79337715,3.70906700
8.80004385,3.70662500
8.80671055,3.71028800
8.81337725,3.70723600
8.82004395,3.70433700
8.82671065,3.70784600
8.83337735,3.70204800
8.84004405,3.70525200
8.84671075,3.70586300
8.85337745,3.70326900
8.86004415,3.70723600
8.86671085,3.70738900
8.87337755,3.70922000
8.88004425,3.70296300
8.88671095,3.70677800
8.89337765,3.70387900
8.90004435,3.69869100
8.90671105,3.70525200
8.91337775,3.70128500
8.92004445,3.70281100
8.92671115,3.70677800
8.93337785,3.70479400
8.94004455,3.70555700
8.94671125,3.70510000
8.95337795,3.70754100
8.96004465,3.70326900
8.96671135,3.70433700
8.97337805,3.70738900
8.98004475,3.69930100
8.98671145,3.70845700
8.99337815,3.70510000
9.00004485,3.70143700
9.00671155,3.71334000
9.01337825,3.70418400
9.02004495,3.70632000
9.02671165,3.70967700
9.03337835,3.70403100
9.04004505,3.70998300
9.04671175,3.70616800
9.05337845,3.71135600
9.06004515,3.70891500
9.06671185,3.71028800
9.07337855,3.71395000
9.08004525,3.70784600
9.08671195,3.71135600
9.09337865,3.71044000
9.10004535,3.70632000
9.10671205,3.71730700
9.11337875,3.71150900
9.12004545,3.70937200
9.12671215,3.71334000
9.13337885,3.70616800
9.14004555,3.71044000
9.14671225,3.70998300
9.15337895,3.71395000
9.16004565,3.71089800
9.16671235,3.71334000
9.17337905,3.71623900
9.18004575,3.71288200
9.18671245,3.71471300
9.19337915,3.71379700
9.20004585,3.70525200
9.20671255,3.71501800
9.21337925,3.71120300
9.22004595,3.71059300
9.22671265,3.71013500
9.23337935,3.71608600
9.24004605,3.71272900
9.24671275,3.71593400
9.25337945,3.71623900
9.26004615,3.71150900
9.26671285,3.71471300
9.27337955,3.71242400
9.28004625,3.71257700
9.28671295,3.71089800
9.29337965,3.70937200
9.30004635,3.70906700
9.30671305,3.71501800
9.31337975,3.71807000
9.32004645,3.71547600
9.32671315,3.71929100
9.33337985,3.71486500
9.34004655,3.71120300
9.34671325,3.71272900
9.35337995,3.70891500
9.36004665,3.70845700
9.36671335,3.71166100
9.37338005,3.71303400
9.38004675,3.71349200
9.38671345,3.71883300
9.39338015,3.72112200
9.40004684,3.71150900
9.40671354,3.71181400
9.41338024,3.71013500
9.42004694,3.70510000
9.42671364,3.71013500
9.43338034,3.70616800
9.44004704,3.70418400
9.44671374,3.71395000
9.45338044,3.71471300
9.46004714,3.71471300
9.46671384,3.71684900
9.47338054,3.71089800
9.48004724,3.70922000
9.48671394,3.70922000
9.49338064,3.70708300
9.50004734,3.70510000
9.50671404,3.70738900
9.51338074,3.71044000
9.52004744,3.71135600
9.52671414,3.71395000
9.53338084,3.71730700
9.54004754,3.71105100
9.54671424,3.71257700
9.55338094,3.71257700
9.56004764,3.70479400
9.56671434,3.70784600
9.57338104,3.70937200
9.58004774,3.70372600
9.58671444,3.71410300
9.59338114,3.71501800
9.60004784,3.71303400
9.60671454,3.71883300
9.61338124,3.71471300
9.62004794,3.71501800
9.62671464,3.71303400
9.63338134,3.71272900
9.64004804,3.70967700
9.64671474,3.70830400
9.65338144,3.71395000
9.66004814,3.71242400
9.66671484,3.71623900
9.67338154,3.72280000
9.68004824,3.71501800
9.68671494,3.71730700
9.69338164,3.71868000
9.70004834,3.70998300
9.70671504,3.71211900
9.71338174,3.71150900
9.72004844,3.71181400
9.72671514,3.71593400
9.73338184,3.71593400
9.74004854,3.71547600
9.74671524,3.71715500
9.75338194,3.71425500
9.76004864,3.71776500
9.76671534,3.71257700
9.77338204,3.71120300
9.78004874,3.71547600
9.78671544,3.70250600
9.79338214,3.71639200
9.80004884,3.71089800
9.80671554,3.71395000
9.81338224,3.71776500
9.82004894,3.71623900
9.82671564,3.71791700
9.83338234,3.71028800
9.84004904,3.71593400
9.84671574,3.70784600
9.85338244,3.70845700
9.86004914,3.71532300
9.86671584,3.70281100
9.87338254,3.71776500
9.88004924,3.71059300
9.88671594,3.71364500
9.89338264,3.71761200
9.90004934,3.71044000
9.90671604,3.71593400
9.91338274,3.70830400
9.92004944,3.71028800
9.92671614,3.71150900
9.93338284,3.70677800
9.94004954,3.71379700
9.94671624,3.70891500
9.95338294,3.71150900
9.96004964,3.71181400
9.96671634,3.70723600
9.97338304,3.71166100
9.98004974,3.70601500
9.98671644,3.71044000
9.99338314,3.70830400
10.00004984,3.70616800
10.00671653,3.71120300
10.01338323,3.70174300
10.02004993,3.70876200
10.02671663,3.70906700
10.03338333,3.70387900
10.04005003,3.70754100
10.04671673,3.70494700
10.05338343,3.70525200
10.06005013,3.70479400
10.06671683,3.70113200
10.07338353,3.70723600
10.08005023,3.70326900
10.08671693,3.70464200
10.09338363,3.70372600
10.10005033,3.70235300
10.10671703,3.70510000
10.11338373,3.70036900
10.12005043,3.70494700
10.12671713,3.70433700
10.13338383,3.70204800
10.14005053,3.70433700
10.14671723,3.70265800
10.15338393,3.70357400
10.16005063,3.70464200
10.16671733,3.70723600
10.17338403,3.70662500
10.18005073,3.70433700
10.18671743,3.70708300
10.19338413,3.70342100
10.20005083,3.70708300
10.20671753,3.70464200
10.21338423,3.70555700
10.22005093,3.70387900
10.22671763,3.70357400
10.23338433,3.70342100
10.24005103,3.70357400
10.24671773,3.70860900
10.25338443,3.70357400
10.26005113,3.70281100
10.26671783,3.70845700
10.27338453,3.69960600
10.28005123,3.70540500
10.28671793,3.70342100
10.29338463,3.70586300
10.30005133,3.70494700
10.30671803,3.70433700
10.31338473,3.70906700
10.32005143,3.69853800
10.32671813,3.70769400
10.33338483,3.70403100
10.34005153,3.69914800
10.34671823,3.70967700
10.35338493,3.70220000
10.36005163,3.70296300
10.36671833,3.70799900
10.37338503,3.70647300
10.38005173,3.70540500
10.38671843,3.70799900
10.39338513,3.70540500
10.40005183,3.70555700
10.40671853,3.70784600
10.41338523,3.70662500
10.42005193,3.70342100
10.42671863,3.70906700
10.43338533,3.70983000
10.44005203,3.70616800
10.44671873,3.70708300
10.45338543,3.70723600
10.46005213,3.70479400
10.46671883,3.70860900
10.47338553,3.70784600
10.48005223,3.70418400
10.48671893,3.70601500
10.49338563,3.71044000
10.50005233,3.70403100
10.50671903,3.70983000
10.51338573,3.70983000
10.52005243,3.70387900
10.52671913,3.70891500
10.53338583,3.70357400
10.54005253,3.70464200
10.54671923,3.70418400
10.55338593,3.70204800
10.56005263,3.70220000
10.56671933,3.69960600
10.57338603,3.70159000
10.58005273,3.69655400
10.58671943,3.69991200
10.59338613,3.70036900
10.60005283,3.69304500
10.60671953,3.70174300
10.61338622,3.69197700
10.62005292,3.69640200
10.62671962,3.69655400
10.63338632,3.69792800
10.64005302,3.69884300
10.64671972,3.69548600
10.65338642,3.70250600
10.66005312,3.69167200
10.66671982,3.70342100
10.67338652,3.69609700
10.68005322,3.69045100
10.68671992,3.69777500
10.69338662,3.69014500
10.70005332,3.70052200
10.70672002,3.69716500
10.71338672,3.69411300
10.72005342,3.69655400
10.72672012,3.69396000
10.73338682,3.69640200
10.74005352,3.69594400
10.74672022,3.69594400
10.75338692,3.69106100
10.76005362,3.69304500
10.76672032,3.69701200
10.77338702,3.69457100
10.78005372,3.70006400
10.78672042,3.69594400
10.79338712,3.69747000
10.80005382,3.70098000
10.80672052,3.69853800
10.81338722,3.69960600
10.82005392,3.69701200
10.82672062,3.69869100
10.83338732,3.69930100
10.84005402,3.69838500
10.84672072,3.70159000
10.85338742,3.69518100
10.86005412,3.69731700
10.86672082,3.70052200
10.87338752,3.69838500
10.88005422,3.70128500
10.88672092,3.69777500
10.89338762,3.69487600
10.90005432,3.69930100
10.90672102,3.69655400
10.91338772,3.69838500
10.92005442,3.69350300
10.92672112,3.69731700
10.93338782,3.69502900
10.94005452,3.69350300
10.94672122,3.69701200
10.95338792,3.69197700
10.96005462,3.69548600
10.96672132,3.69304500
10.97338802,3.69411300
10.98005472,3.69457100
10.98672142,3.69548600
10.99338812,3.69747000
11.00005482,3.69029800
11.00672152,3.69914800
11.01338822,3.69579100
11.02005492,3.69853800
11.02672162,3.70174300
11.03338832,3.68465200
11.04005502,3.69304500
11.04672172,3.69716500
11.05338842,3.69258700
11.06005512,3.69869100
11.06672182,3.69747000
11.07338852,3.69365500
11.08005522,3.69792800
11.08672192,3.69472300
11.09338862,3.69655400
11.10005532,3.69747000
11.10672202,3.69151900
11.11338872,3.69808000
11.12005542,3.68495800
11.12672212,3.69487600
11.13338882,3.69487600
11.14005552,3.68541500
11.14672222,3.69731700
11.15338892,3.68831400
11.16005562,3.68846700
11.16672232,3.68739900
11.17338902,3.68419500
11.18005572,3.68511000
11.18672242,3.68511000
11.19338912,3.69304500
11.20005582,3.68968800
11.20672252,3.69884300
11.21338922,3.70098000
11.22005591,3.70235300
11.22672261,3.70464200
11.23338931,3.70082700
11.24005601,3.69731700
11.24672271,3.69106100
11.25338941,3.69838500
11.26005611,3.69090800
11.26672281,3.69960600
11.27338951,3.70235300
11.28005621,3.69045100
11.28672291,3.70220000
11.29338961,3.69762300
11.30005631,3.69411300
11.30672301,3.70174300
11.31338971,3.69289200
11.32005641,3.69747000
11.32672311,3.69701200
11.33338981,3.69670700
11.34005651,3.69228200
11.34672321,3.69487600
11.35338991,3.69304500
11.36005661,3.69167200
11.36672331,3.69457100
11.37339001,3.68907700
11.38005671,3.69029800
11.38672341,3.68831400
11.39339011,3.68877200
11.40005681,3.68419500
11.40672351,3.68923000
11.41339021,3.68800900
11.42005691,3.68083700
11.42672361,3.69655400
11.43339031,3.67671800
11.44005701,3.69655400
11.44672371,3.69518100
11.45339041,3.68205800
11.46005711,3.69838500
11.46672381,3.68450000
11.47339051,3.69121400
11.48005721,3.68968800
11.48672391,3.68450000
11.49339061,3.69304500
11.50005731,3.67915900
11.50672401,3.69304500
11.51339071,3.69029800
11.52005741,3.68892500
11.52672411,3.69808000
11.53339081,3.69121400
11.54005751,3.69792800
11.54672421,3.69548600
11.55339091,3.69808000
11.56005761,3.69777500
11.56672431,3.69869100
11.57339101,3.70006400
11.58005771,3.69487600
11.58672441,3.69853800
11.59339111,3.69808000
11.60005781,3.68404200
11.60672451,3.69518100
11.61339121,3.69533400
11.62005791,3.68984000
