Time,Channel A
(s),(V)

0.00000000,2.71095900
0.00666670,2.70195600
0.01333340,2.72896500
0.02000010,2.70653400
0.02666680,2.72072500
0.03333350,2.71782600
0.04000020,2.70561800
0.04666690,2.71630000
0.05333360,2.70516100
0.06000030,2.71904700
0.06666700,2.71324800
0.07333370,2.70653400
0.08000040,2.71996200
0.08666710,2.71538400
0.09333380,2.71507900
0.10000050,2.72713400
0.10666720,2.70638100
0.11333390,2.71248500
0.12000060,2.71416400
0.12666730,2.70561800
0.13333400,2.71630000
0.14000070,2.72454000
0.14666740,2.69844700
0.15333410,2.72469300
0.16000080,2.70958600
0.16666750,2.71111200
0.17333420,2.72652400
0.18000090,2.70363500
0.18666760,2.72225100
0.19333430,2.70317700
0.20000100,2.71248500
0.20666770,2.71645300
0.21333440,2.70363500
0.22000110,2.72209800
0.22666780,2.70821300
0.23333450,2.71401100
0.24000120,2.72026700
0.24666790,2.71004400
0.25333460,2.72881200
0.26000130,2.70119300
0.26666800,2.72240400
0.27333470,2.70668600
0.28000140,2.70348200
0.28666810,2.72133500
0.29333480,2.70256700
0.30000150,2.71981000
0.30666819,2.72515000
0.31333489,2.70317700
0.32000159,2.72652400
0.32666829,2.71385800
0.33333499,2.71401100
0.34000169,2.71492700
0.34666839,2.71034900
0.35333509,2.69875200
0.36000179,2.72377700
0.36666849,2.71263800
0.37333519,2.72377700
0.38000189,2.70973800
0.38666859,2.72209800
0.39333529,2.71584200
0.40000199,2.70622900
0.40666869,2.73323800
0.41333539,2.69844700
0.42000209,2.71126400
0.42666879,2.71797800
0.43333549,2.69478400
0.44000219,2.74086700
0.44666889,2.70668600
0.45333559,2.72194600
0.46000229,2.71919900
0.46666899,2.70439800
0.47333569,2.73476400
0.48000239,2.69249600
0.48666909,2.72896500
0.49333579,2.71126400
0.50000249,2.69234300
0.50666919,2.74239300
0.51333589,2.69646300
0.52000259,2.72820200
0.52666929,2.72545600
0.53333599,2.70226100
0.54000269,2.73522100
0.54666939,2.70165100
0.55333609,2.72118300
0.56000279,2.71645300
0.56666949,2.70210900
0.57333619,2.72042000
0.58000289,2.70500800
0.58666959,2.71874100
0.59333629,2.71782600
0.60000299,2.71736800
0.60666969,2.71401100
0.61333639,2.71767300
0.62000309,2.72301400
0.62666979,2.71218000
0.63333649,2.72240400
0.64000319,2.70378700
0.64666989,2.70729700
0.65333659,2.72331900
0.66000329,2.70088800
0.66666999,2.72896500
0.67333669,2.71324800
0.68000339,2.72255600
0.68667009,2.71996200
0.69333679,2.71950400
0.70000349,2.71874100
0.70667019,2.70241400
0.71333689,2.71492700
0.72000359,2.71294300
0.72667029,2.69737800
0.73333699,2.72484500
0.74000369,2.70867000
0.74667039,2.71828400
0.75333709,2.73125400
0.76000379,2.71630000
0.76667049,2.72225100
0.77333719,2.71767300
0.78000389,2.71141700
0.78667059,2.70577100
0.79333729,2.70638100
0.80000399,2.71202700
0.80667069,2.70592400
0.81333739,2.73033800
0.82000409,2.72209800
0.82667079,2.71874100
0.83333749,2.72072500
0.84000419,2.72240400
0.84667089,2.70699200
0.85333759,2.71385800
0.86000429,2.71523200
0.86667099,2.69188500
0.87333769,2.72103000
0.88000439,2.71828400
0.88667109,2.71126400
0.89333779,2.73522100
0.90000449,2.71492700
0.90667119,2.71767300
0.91333788,2.71630000
0.92000458,2.72515000
0.92667128,2.70348200
0.93333798,2.70775500
0.94000468,2.72270900
0.94667138,2.69509000
0.95333808,2.72362400
0.96000478,2.72835500
0.96667148,2.71004400
0.97333818,2.72820200
0.98000488,2.71630000
0.98667158,2.71507900
0.99333828,2.71584200
1.00000498,2.71340100
1.00667168,2.71080700
1.01333838,2.70561800
1.02000508,2.72133500
1.02667178,2.71080700
1.03333848,2.72026700
1.04000518,2.73140700
1.04667188,2.70760200
1.05333858,2.72393000
1.06000528,2.71385800
1.06667198,2.71034900
1.07333868,2.72011500
1.08000538,2.70851800
1.08667208,2.71721600
1.09333878,2.70958600
1.10000548,2.72164100
1.10667218,2.72606600
1.11333888,2.71126400
1.12000558,2.72774400
1.12667228,2.70531300
1.13333898,2.71965700
1.14000568,2.71507900
1.14667238,2.70867000
1.15333908,2.71736800
1.16000578,2.70516100
1.16667248,2.72545600
1.17333918,2.71797800
1.18000588,2.71401100
1.18667258,2.73094900
1.19333928,2.70500800
1.20000598,2.72042000
1.20667268,2.71324800
1.21333938,2.71721600
1.22000608,2.71828400
1.22667278,2.71691000
1.23333948,2.70317700
1.24000618,2.72393000
1.24667288,2.71523200
1.25333958,2.71477400
1.26000628,2.73293300
1.26667298,2.70195600
1.27333968,2.72408200
1.28000638,2.71462100
1.28667308,2.70821300
1.29333978,2.73384800
1.30000648,2.69005400
1.30667318,2.72835500
1.31333988,2.70836500
1.32000658,2.70119300
1.32667328,2.74422400
1.33333998,2.69341100
1.34000668,2.73323800
1.34667338,2.70989100
1.35334008,2.70912800
1.36000678,2.73110200
1.36667348,2.69982000
1.37334018,2.72545600
1.38000688,2.70119300
1.38667358,2.72881200
1.39334028,2.71385800
1.40000698,2.71157000
1.40667368,2.72606600
1.41334038,2.71080700
1.42000708,2.71843600
1.42667378,2.71294300
1.43334048,2.71858900
1.44000718,2.70485500
1.44667388,2.72072500
1.45334058,2.71416400
1.46000728,2.71004400
1.46667398,2.72789700
1.47334068,2.70043000
1.48000738,2.72606600
1.48667408,2.71080700
1.49334078,2.70821300
1.50000748,2.71965700
1.50667418,2.70455000
1.51334088,2.72667600
1.52000757,2.70867000
1.52667427,2.71569000
1.53334097,2.72377700
1.54000767,2.69600500
1.54667437,2.72988100
1.55334107,2.70470300
1.56000777,2.71355300
1.56667447,2.71904700
1.57334117,2.70729700
1.58000787,2.72164100
1.58667457,2.71324800
1.59334127,2.71279000
1.60000797,2.71752100
1.60667467,2.70912800
1.61334137,2.71599500
1.62000807,2.70760200
1.62667477,2.71462100
1.63334147,2.71004400
1.64000817,2.71218000
1.64667487,2.71858900
1.65334157,2.71416400
1.66000827,2.71782600
1.66667497,2.70714400
1.67334167,2.71721600
1.68000837,2.70195600
1.68667507,2.72087800
1.69334177,2.71324800
1.70000847,2.70577100
1.70667517,2.71950400
1.71334187,2.70104100
1.72000857,2.72789700
1.72667527,2.70638100
1.73334197,2.72209800
1.74000867,2.71218000
1.74667537,2.69600500
1.75334207,2.72957500
1.76000877,2.69341100
1.76667547,2.72667600
1.77334217,2.70394000
1.78000887,2.70867000
1.78667557,2.72393000
1.79334227,2.69951500
1.80000897,2.73400100
1.80667567,2.70256700
1.81334237,2.71645300
1.82000907,2.71965700
1.82667577,2.69631000
1.83334247,2.73979900
1.84000917,2.69570000
1.84667587,2.72698100
1.85334257,2.71416400
1.86000927,2.71340100
1.86667597,2.74605500
1.87334267,2.71294300
1.88000937,2.69096900
1.88667607,2.75338000
1.89334277,2.68318700
1.90000947,2.69661500
1.90667617,2.75154900
1.91334287,2.63466300
1.92000957,2.80175200
1.92667627,2.68822300
1.93334297,2.68883300
1.94000967,2.82311500
1.94667637,2.61452100
1.95334307,2.81624800
1.96000977,2.67952500
1.96667647,2.68715500
1.97334317,2.77352200
1.98000987,2.63634100
1.98667657,2.76100900
1.99334327,2.69814100
2.00000997,2.71248500
2.00667667,2.76528200
2.01334337,2.67754100
2.02001007,2.76299300
2.02667677,2.68074600
2.03334347,2.72454000
2.04001017,2.71858900
2.04667687,2.67342100
2.05334357,2.73323800
2.06001027,2.69509000
2.06667697,2.72301400
2.07334367,2.73476400
2.08001037,2.71950400
2.08667707,2.73522100
2.09334377,2.71157000
2.10001047,2.71004400
2.10667717,2.71080700
2.11334387,2.68959600
2.12001057,2.70897600
2.12667726,2.70256700
2.13334396,2.70500800
2.14001066,2.73995200
2.14667736,2.72087800
2.15334406,2.72743900
2.16001076,2.73598400
2.16667746,2.70409300
2.17334416,2.72255600
2.18001086,2.69829400
2.18667756,2.68944400
2.19334426,2.71660500
2.20001096,2.69509000
2.20667766,2.72347200
2.21334436,2.72103000
2.22001106,2.72087800
2.22667776,2.73232200
2.23334446,2.72972800
2.24001116,2.70287200
2.24667786,2.72911800
2.25334456,2.68990100
2.26001126,2.70043000
2.26667796,2.71065400
2.27334466,2.70394000
2.28001136,2.72042000
2.28667806,2.72698100
2.29334476,2.71782600
2.30001146,2.71599500
2.30667816,2.72789700
2.31334486,2.70439800
2.32001156,2.71385800
2.32667826,2.70653400
2.33334496,2.70592400
2.34001166,2.70851800
2.34667836,2.70973800
2.35334506,2.72515000
2.36001176,2.72194600
2.36667846,2.71904700
2.37334516,2.72850700
2.38001186,2.69814100
2.38667856,2.73033800
2.39334526,2.70958600
2.40001196,2.69707300
2.40667866,2.72728700
2.41334536,2.69600500
2.42001206,2.72362400
2.42667876,2.72866000
2.43334546,2.70485500
2.44001216,2.73003300
2.44667886,2.69814100
2.45334556,2.73003300
2.46001226,2.71569000
2.46667896,2.69310600
2.47334566,2.74056200
2.48001236,2.68074600
2.48667906,2.73339000
2.49334576,2.73339000
2.50001246,2.69661500
2.50667916,2.73995200
2.51334586,2.69768400
2.52001256,2.71752100
2.52667926,2.72530300
2.53334596,2.70897600
2.54001266,2.71950400
2.54667936,2.70043000
2.55334606,2.72515000
2.56001276,2.71614700
2.56667946,2.71736800
2.57334616,2.72957500
2.58001286,2.70516100
2.58667956,2.71141700
2.59334626,2.73155900
2.60001296,2.70134600
2.60667966,2.71752100
2.61334636,2.72972800
2.62001306,2.68318700
2.62667976,2.74010400
2.63334646,2.70897600
2.64001316,2.71385800
2.64667986,2.74086700
2.65334656,2.68776500
2.66001326,2.75124400
2.66667996,2.69066400
2.67334666,2.72545600
2.68001336,2.73461100
2.68668006,2.68257700
2.69334676,2.74346100
2.70001346,2.69783600
2.70668016,2.70851800
2.71334686,2.73720500
2.72001356,2.70668600
2.72668026,2.71889400
2.73334695,2.71645300
2.74001365,2.71706300
2.74668035,2.71569000
2.75334705,2.72072500
2.76001375,2.72118300
2.76668045,2.70653400
2.77334715,2.72286200
2.78001385,2.71706300
2.78668055,2.69386900
2.79334725,2.73522100
2.80001395,2.71691000
2.80668065,2.70760200
2.81334735,2.72728700
2.82001405,2.69509000
2.82668075,2.74132500
2.83334745,2.70592400
2.84001415,2.72896500
2.84668085,2.70989100
2.85334755,2.68730700
2.86001425,2.75353200
2.86668095,2.68807000
2.87334765,2.73323800
2.88001435,2.72347200
2.88668105,2.68150900
2.89334775,2.74178300
2.90001445,2.71446900
2.90668115,2.72225100
2.91334785,2.72774400
2.92001455,2.70088800
2.92668125,2.71019600
2.93334795,2.71340100
2.94001465,2.73537400
2.94668135,2.71019600
2.95334805,2.70363500
2.96001475,2.71248500
2.96668145,2.71599500
2.97334815,2.72789700
2.98001485,2.72591300
2.98668155,2.71797800
2.99334825,2.69997300
3.00001495,2.72423500
3.00668165,2.71584200
3.01334835,2.71370600
3.02001505,2.72423500
3.02668175,2.69692100
3.03334845,2.70638100
3.04001515,2.73140700
3.04668185,2.71706300
3.05334855,2.72011500
3.06001525,2.72667600
3.06668195,2.70317700
3.07334865,2.73247500
3.08001535,2.71630000
3.08668205,2.71279000
3.09334875,2.71401100
3.10001545,2.70210900
3.10668215,2.73018600
3.11334885,2.69249600
3.12001555,2.73629000
3.12668225,2.71782600
3.13334895,2.69982000
3.14001565,2.73964700
3.14668235,2.69402100
3.15334905,2.73155900
3.16001575,2.71645300
3.16668245,2.70317700
3.17334915,2.73537400
3.18001585,2.69600500
3.18668255,2.73506900
3.19334925,2.71477400
3.20001595,2.70165100
3.20668265,2.74239300
3.21334935,2.67510000
3.22001605,2.74590300
3.22668275,2.70851800
3.23334945,2.71416400
3.24001615,2.73400100
3.24668285,2.68837500
3.25334955,2.73583200
3.26001625,2.71141700
3.26668295,2.72072500
3.27334965,2.72927000
3.28001635,2.69478400
3.28668305,2.72698100
3.29334975,2.71904700
3.30001645,2.71080700
3.30668315,2.71416400
3.31334985,2.71569000
3.32001655,2.71126400
3.32668325,2.72774400
3.33334995,2.72866000
3.34001664,2.69264800
3.34668334,2.74788700
3.35335004,2.70607600
3.36001674,2.71385800
3.36668344,2.74300400
3.37335014,2.66731800
3.38001684,2.74834400
3.38668354,2.69982000
3.39335024,2.72850700
3.40001694,2.73506900
3.40668364,2.69188500
3.41335034,2.74636100
3.42001704,2.69783600
3.42668374,2.73491600
3.43335044,2.71889400
3.44001714,2.69234300
3.44668384,2.74865000
3.45335054,2.68303500
3.46001724,2.74468200
3.46668394,2.71141700
3.47335064,2.70287200
3.48001734,2.74163000
3.48668404,2.69203800
3.49335074,2.74758100
3.50001744,2.70287200
3.50668414,2.70912800
3.51335084,2.73094900
3.52001754,2.69035900
3.52668424,2.74895500
3.53335094,2.69707300
3.54001764,2.72789700
3.54668434,2.71385800
3.55335104,2.70699200
3.56001774,2.74452900
3.56668444,2.69509000
3.57335114,2.74147800
3.58001784,2.70149900
3.58668454,2.70531300
3.59335124,2.74010400
3.60001794,2.69631000
3.60668464,2.73766300
3.61335134,2.71034900
3.62001804,2.70836500
3.62668474,2.73033800
3.63335144,2.70729700
3.64001814,2.72484500
3.64668484,2.72240400
3.65335154,2.71263800
3.66001824,2.72896500
3.66668494,2.70851800
3.67335164,2.71889400
3.68001834,2.72393000
3.68668504,2.71721600
3.69335174,2.72011500
3.70001844,2.72194600
3.70668514,2.69585300
3.71335184,2.72759200
3.72001854,2.71660500
3.72668524,2.70500800
3.73335194,2.73964700
3.74001864,2.68852800
3.74668534,2.74056200
3.75335204,2.71507900
3.76001874,2.70851800
3.76668544,2.73964700
3.77335214,2.68913800
3.78001884,2.73781500
3.78668554,2.70989100
3.79335224,2.71569000
3.80001894,2.73735800
3.80668564,2.69341100
3.81335234,2.74086700
3.82001904,2.71324800
3.82668574,2.71019600
3.83335244,2.73629000
3.84001914,2.69966700
3.84668584,2.72728700
3.85335254,2.70989100
3.86001924,2.71095900
3.86668594,2.73949400
3.87335264,2.71630000
3.88001934,2.72866000
3.88668604,2.70561800
3.89335274,2.73079600
3.90001944,2.71691000
3.90668614,2.72347200
3.91335284,2.70439800
3.92001954,2.70958600
3.92668624,2.71157000
3.93335294,2.71660500
3.94001964,2.74651300
3.94668633,2.70729700
3.95335303,2.72164100
3.96001973,2.72881200
3.96668643,2.70638100
3.97335313,2.74269800
3.98001983,2.70363500
3.98668653,2.69814100
3.99335323,2.71492700
4.00001993,2.69539500
4.00668663,2.75185400
4.01335333,2.70851800
4.02002003,2.72576100
4.02668673,2.73415300
4.03335343,2.69096900
4.04002013,2.75002300
4.04668683,2.70088800
4.05335353,2.70271900
4.06002023,2.72515000
4.06668693,2.68990100
4.07335363,2.74132500
4.08002033,2.72362400
4.08668703,2.72164100
4.09335373,2.73369600
4.10002043,2.69783600
4.10668713,2.73629000
4.11335383,2.71416400
4.12002053,2.71126400
4.12668723,2.70745000
4.13335393,2.69615800
4.14002063,2.71233200
4.14668733,2.73278000
4.15335403,2.73110200
4.16002073,2.72881200
4.16668743,2.72240400
4.17335413,2.71095900
4.18002083,2.72393000
4.18668753,2.71889400
4.19335423,2.70760200
4.20002093,2.69997300
4.20668763,2.69509000
4.21335433,2.72255600
4.22002103,2.73339000
4.22668773,2.74163000
4.23335443,2.72270900
4.24002113,2.71584200
4.24668783,2.72286200
4.25335453,2.72011500
4.26002123,2.71446900
4.26668793,2.69707300
4.27335463,2.70958600
4.28002133,2.70699200
4.28668803,2.72133500
4.29335473,2.74300400
4.30002143,2.69600500
4.30668813,2.73705200
4.31335483,2.71614700
4.32002153,2.71157000
4.32668823,2.73461100
4.33335493,2.70195600
4.34002163,2.70516100
4.34668833,2.69707300
4.35335503,2.71797800
4.36002173,2.72881200
4.36668843,2.73140700
4.37335513,2.72576100
4.38002183,2.70287200
4.38668853,2.71065400
4.39335523,2.73552700
4.40002193,2.71874100
4.40668863,2.69875200
4.41335533,2.71981000
4.42002203,2.66884400
4.42668873,2.74605500
4.43335543,2.73888400
4.44002213,2.69707300
4.44668883,2.75399000
4.45335553,2.68059300
4.46002223,2.73094900
4.46668893,2.73278000
4.47335563,2.70043000
4.48002233,2.72377700
4.48668903,2.67693100
4.49335573,2.72530300
4.50002243,2.71782600
4.50668913,2.71889400
4.51335583,2.74376700
4.52002253,2.68578100
4.52668923,2.72774400
4.53335593,2.71706300
4.54002263,2.71401100
4.54668933,2.72270900
4.55335602,2.69905700
4.56002272,2.70882300
4.56668942,2.70531300
4.57335612,2.73430600
4.58002282,2.72454000
4.58668952,2.71569000
4.59335622,2.72545600
4.60002292,2.70790700
4.60668962,2.70897600
4.61335632,2.72576100
4.62002302,2.71507900
4.62668972,2.69371600
4.63335642,2.72347200
4.64002312,2.71797800
4.64668982,2.72469300
4.65335652,2.74987000
4.66002322,2.71736800
4.66668992,2.70714400
4.67335662,2.73003300
4.68002332,2.70348200
4.68669002,2.70851800
4.69335672,2.71691000
4.70002342,2.70409300
4.70669012,2.71080700
4.71335682,2.73613700
4.72002352,2.72637100
4.72669022,2.73247500
4.73335692,2.71477400
4.74002362,2.72591300
4.74669032,2.70012500
4.75335702,2.70714400
4.76002372,2.73018600
4.76669042,2.67937300
4.77335712,2.73262700
4.78002382,2.71202700
4.78669052,2.71294300
4.79335722,2.73537400
4.80002392,2.72270900
4.80669062,2.72423500
4.81335732,2.71279000
4.82002402,2.72362400
4.82669072,2.70363500
4.83335742,2.70592400
4.84002412,2.72667600
4.84669082,2.69463200
4.85335752,2.72362400
4.86002422,2.72743900
4.86669092,2.71645300
4.87335762,2.72911800
4.88002432,2.71858900
4.88669102,2.71294300
4.89335772,2.70714400
4.90002442,2.71828400
4.90669112,2.71141700
4.91335782,2.70134600
4.92002452,2.72896500
4.92669122,2.70745000
4.93335792,2.70668600
4.94002462,2.74666600
4.94669132,2.70226100
4.95335802,2.71996200
4.96002472,2.73049100
4.96669142,2.69280100
4.97335812,2.72362400
4.98002482,2.71080700
4.98669152,2.70134600
4.99335822,2.72362400
5.00002492,2.70516100
5.00669162,2.71919900
5.01335832,2.72240400
5.02002502,2.71004400
5.02669172,2.73659500
5.03335842,2.70516100
5.04002512,2.71874100
5.04669182,2.72545600
5.05335852,2.69570000
5.06002522,2.72545600
5.06669192,2.70912800
5.07335862,2.69768400
5.08002532,2.73155900
5.08669202,2.70943300
5.09335872,2.71889400
5.10002542,2.71858900
5.10669212,2.71950400
5.11335882,2.71782600
5.12002552,2.71492700
5.12669222,2.72820200
5.13335892,2.69386900
5.14002562,2.72759200
5.14669232,2.70241400
5.15335902,2.71523200
5.16002571,2.73842600
5.16669241,2.69509000
5.17335911,2.75856800
5.18002581,2.68913800
5.18669251,2.73720500
5.19335921,2.71614700
5.20002591,2.68761300
5.20669261,2.75856800
5.21335931,2.67708400
5.22002601,2.74117300
5.22669271,2.70790700
5.23335941,2.71416400
5.24002611,2.74712400
5.24669281,2.69463200
5.25335951,2.74590300
5.26002621,2.69402100
5.26669291,2.71919900
5.27335961,2.72866000
5.28002631,2.68654400
5.28669301,2.74376700
5.29335971,2.69203800
5.30002641,2.73293300
5.30669311,2.71843600
5.31335981,2.72728700
5.32002651,2.71095900
5.32669321,2.72331900
5.33335991,2.71721600
5.34002661,2.70363500
5.34669331,2.72667600
5.35336001,2.70134600
5.36002671,2.72576100
5.36669341,2.70867000
5.37336011,2.71614700
5.38002681,2.74178300
5.38669351,2.68807000
5.39336021,2.75872100
5.40002691,2.69768400
5.40669361,2.70592400
5.41336031,2.74147800
5.42002701,2.67082700
5.42669371,2.74651300
5.43336041,2.70348200
5.44002711,2.71599500
5.44669381,2.73873100
5.45336051,2.69768400
5.46002721,2.74132500
5.46669391,2.70470300
5.47336061,2.72606600
5.48002731,2.71416400
5.48669401,2.69539500
5.49336071,2.73079600
5.50002741,2.69890400
5.50669411,2.72301400
5.51336081,2.72331900
5.52002751,2.70714400
5.52669421,2.73003300
5.53336091,2.71767300
5.54002761,2.72072500
5.54669431,2.70943300
5.55336101,2.71111200
5.56002771,2.71172200
5.56669441,2.70561800
5.57336111,2.72377700
5.58002781,2.71767300
5.58669451,2.71095900
5.59336121,2.73506900
5.60002791,2.72515000
5.60669461,2.70500800
5.61336131,2.73674700
5.62002801,2.69478400
5.62669471,2.70531300
5.63336141,2.72881200
5.64002811,2.68379800
5.64669481,2.74895500
5.65336151,2.69325900
5.66002821,2.73293300
5.66669491,2.71797800
5.67336161,2.70714400
5.68002831,2.73781500
5.68669501,2.69707300
5.69336171,2.71157000
5.70002841,2.72347200
5.70669511,2.69737800
5.71336181,2.72576100
5.72002851,2.71034900
5.72669521,2.70867000
5.73336191,2.73476400
5.74002861,2.70867000
5.74669531,2.74041000
5.75336201,2.69356400
5.76002871,2.72362400
5.76669540,2.70714400
5.77336210,2.70790700
5.78002880,2.72957500
5.78669550,2.69661500
5.79336220,2.72896500
5.80002890,2.73155900
5.80669560,2.70287200
5.81336230,2.74636100
5.82002900,2.69615800
5.82669570,2.71569000
5.83336240,2.72209800
5.84002910,2.70195600
5.84669580,2.72545600
5.85336250,2.69783600
5.86002920,2.72988100
5.86669590,2.71691000
5.87336260,2.70699200
5.88002930,2.75261700
5.88669600,2.70073600
5.89336270,2.72728700
5.90002940,2.71446900
5.90669610,2.70394000
5.91336280,2.72225100
5.92002950,2.70531300
5.92669620,2.72103000
5.93336290,2.70790700
5.94002960,2.72789700
5.94669630,2.72423500
5.95336300,2.72240400
5.96002970,2.73049100
5.96669640,2.71095900
5.97336310,2.71889400
5.98002980,2.70958600
5.98669650,2.73125400
5.99336320,2.69493700
6.00002990,2.73384800
6.00669660,2.71614700
6.01336330,2.71218000
6.02003000,2.75902600
6.02669670,2.71294300
6.03336340,2.73384800
6.04003010,2.71767300
6.04669680,2.70088800
6.05336350,2.73140700
6.06003020,2.70134600
6.06669690,2.72743900
6.07336360,2.69539500
6.08003030,2.70897600
6.08669700,2.73339000
6.09336370,2.73033800
6.10003040,2.74651300
6.10669710,2.71752100
6.11336380,2.73903600
6.12003050,2.71233200
6.12669720,2.72270900
6.13336390,2.72499800
6.14003060,2.69142700
6.14669730,2.72499800
6.15336400,2.69539500
6.16003070,2.72530300
6.16669740,2.74102000
6.17336410,2.71263800
6.18003080,2.73323800
6.18669750,2.71263800
6.19336420,2.71004400
6.20003090,2.73400100
6.20669760,2.71416400
6.21336430,2.71919900
6.22003100,2.70455000
6.22669770,2.71981000
6.23336440,2.72957500
6.24003110,2.72377700
6.24669780,2.74285100
6.25336450,2.72270900
6.26003120,2.71141700
6.26669790,2.72896500
6.27336460,2.71263800
6.28003130,2.71660500
6.28669800,2.71095900
6.29336470,2.71111200
6.30003140,2.69814100
6.30669810,2.73125400
6.31336480,2.73033800
6.32003150,2.71645300
6.32669820,2.72972800
6.33336490,2.69905700
6.34003160,2.71172200
6.34669830,2.72011500
6.35336500,2.70867000
6.36003170,2.70882300
6.36669839,2.71401100
6.37336509,2.72408200
6.38003179,2.71477400
6.38669849,2.74254600
6.39336519,2.71645300
6.40003189,2.70867000
6.40669859,2.71904700
6.41336529,2.70790700
6.42003199,2.69966700
6.42669869,2.72713400
6.43336539,2.69707300
6.44003209,2.72194600
6.44669879,2.70607600
6.45336549,2.73018600
6.46003219,2.72621800
6.46669889,2.70668600
6.47336559,2.74224100
6.48003229,2.68623900
6.48669899,2.72225100
6.49336569,2.70394000
6.50003239,2.70455000
6.50669909,2.71065400
6.51336579,2.71111200
6.52003249,2.72515000
6.52669919,2.71385800
6.53336589,2.74163000
6.54003259,2.71767300
6.54669929,2.71324800
6.55336599,2.73369600
6.56003269,2.69341100
6.56669939,2.70638100
6.57336609,2.72148800
6.58003279,2.70119300
6.58669949,2.71324800
6.59336619,2.73354300
6.60003289,2.71218000
6.60669959,2.72667600
6.61336629,2.72576100
6.62003299,2.69966700
6.62669969,2.71919900
6.63336639,2.69341100
6.64003309,2.71828400
6.64669979,2.69661500
6.65336649,2.71401100
6.66003319,2.72667600
6.66669989,2.69936200
6.67336659,2.74132500
6.68003329,2.70851800
6.68669999,2.70958600
6.69336669,2.72301400
6.70003339,2.69539500
6.70670009,2.72301400
6.71336679,2.70165100
6.72003349,2.72728700
6.72670019,2.71279000
6.73336689,2.71843600
6.74003359,2.74163000
6.74670029,2.70287200
6.75336699,2.73232200
6.76003369,2.70561800
6.76670039,2.70333000
6.77336709,2.71736800
6.78003379,2.72225100
6.78670049,2.72026700
6.79336719,2.72774400
6.80003389,2.71523200
6.80670059,2.70851800
6.81336729,2.72576100
6.82003399,2.71340100
6.82670069,2.71401100
6.83336739,2.70790700
6.84003409,2.71233200
6.84670079,2.71752100
6.85336749,2.71065400
6.86003419,2.74086700
6.86670089,2.70333000
6.87336759,2.72331900
6.88003429,2.71492700
6.88670099,2.68578100
6.89336769,2.71385800
6.90003439,2.67830400
6.90670109,2.73506900
6.91336779,2.71889400
6.92003449,2.69371600
6.92670119,2.73827300
6.93336789,2.67510000
6.94003459,2.77260700
6.94670129,2.73094900
6.95336799,2.67387900
6.96003469,2.75627900
6.96670139,2.65938300
6.97336808,2.74880200
6.98003478,2.74681900
6.98670148,2.67387900
6.99336818,2.75078600
7.00003488,2.68501900
7.00670158,2.73918900
7.01336828,2.74895500
7.02003498,2.69066400
7.02670168,2.74865000
7.03336838,2.66304500
7.04003508,2.73369600
7.04670178,2.70775500
7.05336848,2.69447900
7.06003518,2.74742900
7.06670188,2.66075600
7.07336858,2.74498700
7.08003528,2.72728700
7.08670198,2.72484500
7.09336868,2.74636100
7.10003538,2.68242400
7.10670208,2.74407200
7.11336878,2.69859900
7.12003548,2.73278000
7.12670218,2.74300400
7.13336888,2.69020700
7.14003558,2.76100900
7.14670228,2.68837500
7.15336898,2.72728700
7.16003568,2.71584200
7.16670238,2.67677900
7.17336908,2.73247500
7.18003578,2.65266900
7.18670248,2.72301400
7.19336918,2.72835500
7.20003588,2.67326900
7.20670258,2.77611600
7.21336928,2.66548700
7.22003598,2.77047000
7.22670268,2.72255600
7.23336938,2.71584200
7.24003608,2.73979900
7.24670278,2.67677900
7.25336948,2.73918900
7.26003618,2.69600500
7.26670288,2.72667600
7.27336958,2.72530300
7.28003628,2.68822300
7.28670298,2.73201700
7.29336968,2.70470300
7.30003638,2.73461100
7.30670308,2.71645300
7.31336978,2.71034900
7.32003648,2.70622900
7.32670318,2.70439800
7.33336988,2.73735800
7.34003658,2.71095900
7.34670328,2.72255600
7.35336998,2.72743900
7.36003668,2.70638100
7.36670338,2.73629000
7.37337008,2.72133500
7.38003678,2.70836500
7.38670348,2.70531300
7.39337018,2.72652400
7.40003688,2.70195600
7.40670358,2.73751000
7.41337028,2.73094900
7.42003698,2.71248500
7.42670368,2.72545600
7.43337038,2.71660500
7.44003708,2.72454000
7.44670378,2.70897600
7.45337048,2.71569000
7.46003718,2.70241400
7.46670388,2.70394000
7.47337058,2.73598400
7.48003728,2.71767300
7.48670398,2.72652400
7.49337068,2.73125400
7.50003738,2.71996200
7.50670408,2.71004400
7.51337078,2.73720500
7.52003748,2.70195600
7.52670418,2.71034900
7.53337088,2.71660500
7.54003758,2.70348200
7.54670428,2.72423500
7.55337098,2.73033800
7.56003768,2.71828400
7.56670438,2.73201700
7.57337108,2.70760200
7.58003777,2.72774400
7.58670447,2.70226100
7.59337117,2.71401100
7.60003787,2.71507900
7.60670457,2.69661500
7.61337127,2.71904700
7.62003797,2.72347200
7.62670467,2.72621800
7.63337137,2.74391900
7.64003807,2.71355300
7.64670477,2.71996200
7.65337147,2.71858900
7.66003817,2.72270900
7.66670487,2.71569000
7.67337157,2.71584200
7.68003827,2.71584200
7.68670497,2.71034900
7.69337167,2.74300400
7.70003837,2.72011500
7.70670507,2.72118300
7.71337177,2.73552700
7.72003847,2.70088800
7.72670517,2.75215900
7.73337187,2.69493700
7.74003857,2.69936200
7.74670527,2.74727600
7.75337197,2.75261700
7.76003867,2.65083800
7.76670537,2.86126300
7.77337207,2.62611800
7.78003877,2.76909700
7.78670547,2.74147800
7.79337217,2.60307600
7.80003887,2.87316500
7.80670557,2.61253700
7.81337227,2.76619800
7.82003897,2.79229100
7.82670567,2.61284200
7.83337237,2.88384700
7.84003907,2.65602600
7.84670577,2.76818100
7.85337247,2.75551600
7.86003917,2.64748100
7.86670587,2.79351200
7.87337257,2.64091900
7.88003927,2.76131500
7.88670597,2.72362400
7.89337267,2.70470300
7.90003937,2.79397000
7.90670607,2.67403200
7.91337277,2.77550600
7.92003947,2.68639200
7.92670617,2.72728700
7.93337287,2.70699200
7.94003957,2.67952500
7.94670627,2.72454000
7.95337297,2.68135600
7.96003967,2.74620800
7.96670637,2.72469300
7.97337307,2.72820200
7.98003977,2.75597400
7.98670647,2.71736800
7.99337317,2.72469300
8.00003987,2.70973800
8.00670657,2.71157000
8.01337327,2.68623900
8.02003997,2.70561800
8.02670667,2.72621800
8.03337337,2.70378700
8.04004007,2.75154900
8.04670677,2.73232200
8.05337347,2.72164100
8.06004017,2.74452900
8.06670687,2.72301400
8.07337357,2.70882300
8.08004027,2.72011500
8.08670697,2.69219000
8.09337367,2.70851800
8.10004037,2.71248500
8.10670707,2.73003300
8.11337377,2.72255600
8.12004047,2.73369600
8.12670717,2.73583200
8.13337387,2.71889400
8.14004057,2.71645300
8.14670727,2.73522100
8.15337397,2.68730700
8.16004067,2.70989100
8.16670737,2.70668600
8.17337407,2.70607600
8.18004077,2.73659500
8.18670746,2.72927000
8.19337416,2.72270900
8.20004086,2.72637100
8.20670756,2.72759200
8.21337426,2.72896500
8.22004096,2.69875200
8.22670766,2.71660500
8.23337436,2.69402100
8.24004106,2.70226100
8.24670776,2.73217000
8.25337446,2.72866000
8.26004116,2.72545600
8.26670786,2.74132500
8.27337456,2.71065400
8.28004126,2.72087800
8.28670796,2.72454000
8.29337466,2.71172200
8.30004136,2.70256700
8.30670806,2.70775500
8.31337476,2.71416400
8.32004146,2.72133500
8.32670816,2.73262700
8.33337486,2.73110200
8.34004156,2.71324800
8.34670826,2.72606600
8.35337496,2.71797800
8.36004166,2.70638100
8.36670836,2.71919900
8.37337506,2.70912800
8.38004176,2.70500800
8.38670846,2.72026700
8.39337516,2.72652400
8.40004186,2.71416400
8.40670856,2.73705200
8.41337526,2.72728700
8.42004196,2.70897600
8.42670866,2.72988100
8.43337536,2.70653400
8.44004206,2.71492700
8.44670876,2.70638100
8.45337546,2.72042000
8.46004216,2.71691000
8.46670886,2.71660500
8.47337556,2.74590300
8.48004226,2.71263800
8.48670896,2.71904700
8.49337566,2.73369600
8.50004236,2.69219000
8.50670906,2.73140700
8.51337576,2.71416400
8.52004246,2.70882300
8.52670916,2.71904700
8.53337586,2.72255600
8.54004256,2.72835500
8.54670926,2.71721600
8.55337596,2.73705200
8.56004266,2.70851800
8.56670936,2.70012500
8.57337606,2.72576100
8.58004276,2.71126400
8.58670946,2.72301400
8.59337616,2.66823300
8.60004286,2.79381700
8.60670956,2.64702300
8.61337626,2.80190400
8.62004296,2.75353200
8.62670966,2.59590400
8.63337636,2.93801700
8.64004306,2.62001400
8.64670976,2.84524100
8.65337646,2.77108100
8.66004316,2.58659600
8.66670986,2.94625700
8.67337656,2.59407300
8.68004326,2.84630900
8.68670996,2.74346100
8.69337666,2.61757300
8.70004336,2.90414100
8.70671006,2.57484700
8.71337676,2.84142600
8.72004346,2.68379800
8.72671016,2.70439800
8.73337686,2.82662400
8.74004356,2.59163200
8.74671026,2.84051000
8.75337696,2.63191600
8.76004366,2.78130400
8.76671036,2.74041000
8.77337706,2.64061400
8.78004376,2.81106000
8.78671046,2.61543600
8.79337715,2.80816100
8.80004385,2.70516100
8.80671055,2.69493700
8.81337725,2.75551600
8.82004395,2.64595500
8.82671065,2.78237200
8.83337735,2.68837500
8.84004405,2.74803900
8.84671075,2.69768400
8.85337745,2.68242400
8.86004415,2.76924900
8.86671085,2.68196700
8.87337755,2.76711300
8.88004425,2.69737800
8.88671095,2.69203800
8.89337765,2.74483500
8.90004435,2.69753100
8.90671105,2.75597400
8.91337775,2.68639200
8.92004445,2.71538400
8.92671115,2.72652400
8.93337785,2.69737800
8.94004455,2.75765300
8.94671125,2.69249600
8.95337795,2.71324800
8.96004465,2.72301400
8.96671135,2.71019600
8.97337805,2.74102000
8.98004475,2.70134600
8.98671145,2.72194600
8.99337815,2.69875200
9.00004485,2.71950400
9.00671155,2.73461100
9.01337825,2.70500800
9.02004495,2.72743900
9.02671165,2.70516100
9.03337835,2.71263800
9.04004505,2.73232200
9.04671175,2.71996200
9.05337845,2.71797800
9.06004515,2.70577100
9.06671185,2.72194600
9.07337855,2.70622900
9.08004525,2.72988100
9.08671195,2.71736800
9.09337865,2.70531300
9.10004535,2.72118300
9.10671205,2.71614700
9.11337875,2.71950400
9.12004545,2.72637100
9.12671215,2.71706300
9.13337885,2.71004400
9.14004555,2.71279000
9.14671225,2.72072500
9.15337895,2.71736800
9.16004565,2.70790700
9.16671235,2.72225100
9.17337905,2.70607600
9.18004575,2.72591300
9.18671245,2.73094900
9.19337915,2.71660500
9.20004585,2.71324800
9.20671255,2.71782600
9.21337925,2.70790700
9.22004595,2.71843600
9.22671265,2.71263800
9.23337935,2.72301400
9.24004605,2.70134600
9.24671275,2.72713400
9.25337945,2.72377700
9.26004615,2.71279000
9.26671285,2.73705200
9.27337955,2.69966700
9.28004625,2.71599500
9.28671295,2.71263800
9.29337965,2.71630000
9.30004635,2.71279000
9.30671305,2.70592400
9.31337975,2.73247500
9.32004645,2.71507900
9.32671315,2.72225100
9.33337985,2.73354300
9.34004655,2.69936200
9.34671325,2.72606600
9.35337995,2.70821300
9.36004665,2.71385800
9.36671335,2.70607600
9.37338005,2.72072500
9.38004675,2.71507900
9.38671345,2.71630000
9.39338015,2.73415300
9.40004684,2.71172200
9.40671354,2.71843600
9.41338024,2.72026700
9.42004694,2.70943300
9.42671364,2.70394000
9.43338034,2.71950400
9.44004704,2.71080700
9.44671374,2.70500800
9.45338044,2.73796800
9.46004714,2.71355300
9.46671384,2.71279000
9.47338054,2.73873100
9.48004724,2.69463200
9.48671394,2.72591300
9.49338064,2.71477400
9.50004734,2.70729700
9.50671404,2.70851800
9.51338074,2.70745000
9.52004744,2.72743900
9.52671414,2.70729700
9.53338084,2.73629000
9.54004754,2.71706300
9.54671424,2.70516100
9.55338094,2.73232200
9.56004764,2.70714400
9.56671434,2.70775500
9.57338104,2.71538400
9.58004774,2.71095900
9.58671444,2.70989100
9.59338114,2.73171200
9.60004784,2.71126400
9.60671454,2.71889400
9.61338124,2.72286200
9.62004794,2.72072500
9.62671464,2.71080700
9.63338134,2.72026700
9.64004804,2.71416400
9.64671474,2.70149900
9.65338144,2.71630000
9.66004814,2.72774400
9.66671484,2.70409300
9.67338154,2.73537400
9.68004824,2.71919900
9.68671494,2.70622900
9.69338164,2.73110200
9.70004834,2.71279000
9.70671504,2.70699200
9.71338174,2.71797800
9.72004844,2.70958600
9.72671514,2.71523200
9.73338184,2.72209800
9.74004854,2.72530300
9.74671524,2.71141700
9.75338194,2.71919900
9.76004864,2.72713400
9.76671534,2.70516100
9.77338204,2.72728700
9.78004874,2.71294300
9.78671544,2.70287200
9.79338214,2.71919900
9.80004884,2.71965700
9.80671554,2.72133500
9.81338224,2.71645300
9.82004894,2.72408200
9.82671564,2.71248500
9.83338234,2.71691000
9.84004904,2.72576100
9.84671574,2.70958600
9.85338244,2.72209800
9.86004914,2.71492700
9.86671584,2.71614700
9.87338254,2.70958600
9.88004924,2.73018600
9.88671594,2.71721600
9.89338264,2.71095900
9.90004934,2.71981000
9.90671604,2.70989100
9.91338274,2.72148800
9.92004944,2.71919900
9.92671614,2.71996200
9.93338284,2.69966700
9.94004954,2.73339000
9.94671624,2.71279000
9.95338294,2.71324800
9.96004964,2.72667600
9.96671634,2.70012500
9.97338304,2.72103000
9.98004974,2.71340100
9.98671644,2.72209800
9.99338314,2.71095900
10.00004984,2.71981000
10.00671653,2.71828400
10.01338323,2.70882300
10.02004993,2.72377700
10.02671663,2.72606600
10.03338333,2.70897600
10.04005003,2.71721600
10.04671673,2.71660500
10.05338343,2.70699200
10.06005013,2.72576100
10.06671683,2.72621800
10.07338353,2.69402100
10.08005023,2.73384800
10.08671693,2.71645300
10.09338363,2.71538400
10.10005033,2.72499800
10.10671703,2.70821300
10.11338373,2.71263800
10.12005043,2.71324800
10.12671713,2.72866000
10.13338383,2.71095900
10.14005053,2.71202700
10.14671723,2.72652400
10.15338393,2.69997300
10.16005063,2.73522100
10.16671733,2.72103000
10.17338403,2.70287200
10.18005073,2.71965700
10.18671743,2.71157000
10.19338413,2.71874100
10.20005083,2.72331900
10.20671753,2.70256700
10.21338423,2.73384800
10.22005093,2.69951500
10.22671763,2.72026700
10.23338433,2.72194600
10.24005103,2.67845700
10.24671773,2.78283000
10.25338443,2.65770400
10.26005113,2.74468200
10.26671783,2.71752100
10.27338453,2.67525200
10.28005123,2.77596400
10.28671793,2.67250600
10.29338463,2.74681900
10.30005133,2.68685000
10.30671803,2.71492700
10.31338473,2.75231200
10.32005143,2.68211900
10.32671813,2.74163000
10.33338483,2.69524200
10.34005153,2.69737800
10.34671823,2.74636100
10.35338493,2.70134600
10.36005163,2.72988100
10.36671833,2.70363500
10.37338503,2.70897600
10.38005173,2.71599500
10.38671843,2.71858900
10.39338513,2.73583200
10.40005183,2.68883300
10.40671853,2.71202700
10.41338523,2.71706300
10.42005193,2.70333000
10.42671863,2.73125400
10.43338533,2.71416400
10.44005203,2.69539500
10.44671873,2.72789700
10.45338543,2.72423500
10.46005213,2.71324800
10.46671883,2.72576100
10.47338553,2.70394000
10.48005223,2.71569000
10.48671893,2.70699200
10.49338563,2.73003300
10.50005233,2.70378700
10.50671903,2.69966700
10.51338573,2.72835500
10.52005243,2.70561800
10.52671913,2.72026700
10.53338583,2.73766300
10.54005253,2.69859900
10.54671923,2.71660500
10.55338593,2.71950400
10.56005263,2.71385800
10.56671933,2.71492700
10.57338603,2.72072500
10.58005273,2.69859900
10.58671943,2.70607600
10.59338613,2.73140700
10.60005283,2.71691000
10.60671953,2.70760200
10.61338622,2.74132500
10.62005292,2.68776500
10.62671962,2.72576100
10.63338632,2.72820200
10.64005302,2.69997300
10.64671972,2.72347200
10.65338642,2.69631000
10.66005312,2.71981000
10.66671982,2.71324800
10.67338652,2.72850700
10.68005322,2.72255600
10.68671992,2.69905700
10.69338662,2.73278000
10.70005332,2.70851800
10.70672002,2.71996200
10.71338672,2.71996200
10.72005342,2.70592400
10.72672012,2.70622900
10.73338682,2.71736800
10.74005352,2.72576100
10.74672022,2.70745000
10.75338692,2.72621800
10.76005362,2.71172200
10.76672032,2.70348200
10.77338702,2.73491600
10.78005372,2.71416400
10.78672042,2.70882300
10.79338712,2.71630000
10.80005382,2.71324800
10.80672052,2.70912800
10.81338722,2.72530300
10.82005392,2.71630000
10.82672062,2.71202700
10.83338732,2.71324800
10.84005402,2.72408200
10.84672072,2.70912800
10.85338742,2.71767300
10.86005412,2.71904700
10.86672082,2.69631000
10.87338752,2.72667600
10.88005422,2.71095900
10.88672092,2.71858900
10.89338762,2.72484500
10.90005432,2.70226100
10.90672102,2.72362400
10.91338772,2.70775500
10.92005442,2.72454000
10.92672112,2.71538400
10.93338782,2.70241400
10.94005452,2.72988100
10.94672122,2.69905700
10.95338792,2.72286200
10.96005462,2.72347200
10.96672132,2.71279000
10.97338802,2.71401100
10.98005472,2.71080700
10.98672142,2.72118300
10.99338812,2.70714400
11.00005482,2.72530300
11.00672152,2.71111200
11.01338822,2.70897600
11.02005492,2.72362400
11.02672162,2.71370600
11.03338832,2.71797800
11.04005502,2.71767300
11.04672172,2.71370600
11.05338842,2.70333000
11.06005512,2.72484500
11.06672182,2.71233200
11.07338852,2.71218000
11.08005522,2.72011500
11.08672192,2.71034900
11.09338862,2.71385800
11.10005532,2.72774400
11.10672202,2.72072500
11.11338872,2.71126400
11.12005542,2.70897600
11.12672212,2.71767300
11.13338882,2.70943300
11.14005552,2.72286200
11.14672222,2.71233200
11.15338892,2.70912800
11.16005562,2.71507900
11.16672232,2.72194600
11.17338902,2.72026700
11.18005572,2.71569000
11.18672242,2.71919900
11.19338912,2.70577100
11.20005582,2.70470300
11.20672252,2.73293300
11.21338922,2.69966700
11.22005591,2.72255600
11.22672261,2.71141700
11.23338931,2.71172200
11.24005601,2.72591300
11.24672271,2.71141700
11.25338941,2.72499800
11.26005611,2.69859900
11.26672281,2.71996200
11.27338951,2.71736800
11.28005621,2.69966700
11.28672291,2.72377700
11.29338961,2.70760200
11.30005631,2.71233200
11.30672301,2.71874100
11.31338971,2.72270900
11.32005641,2.71172200
11.32672311,2.72240400
11.33338981,2.71157000
11.34005651,2.70485500
11.34672321,2.72164100
11.35338991,2.70394000
11.36005661,2.71721600
11.36672331,2.70729700
11.37339001,2.71904700
11.38005671,2.72042000
11.38672341,2.71034900
11.39339011,2.73217000
11.40005681,2.70348200
11.40672351,2.71797800
11.41339021,2.72225100
11.42005691,2.69463200
11.42672361,2.72515000
11.43339031,2.70561800
11.44005701,2.71569000
11.44672371,2.71630000
11.45339041,2.72011500
11.46005711,2.72240400
11.46672381,2.71080700
11.47339051,2.73491600
11.48005721,2.69982000
11.48672391,2.71584200
11.49339061,2.71767300
11.50005731,2.69814100
11.50672401,2.72393000
11.51339071,2.71141700
11.52005741,2.71981000
11.52672411,2.71416400
11.53339081,2.72225100
11.54005751,2.71874100
11.54672421,2.71263800
11.55339091,2.72698100
11.56005761,2.70195600
11.56672431,2.70867000
11.57339101,2.72148800
11.58005771,2.70317700
11.58672441,2.72377700
11.59339111,2.71904700
11.60005781,2.71385800
11.60672451,2.72347200
11.61339121,2.71752100
11.62005791,2.72423500
11.62672461,2.70119300
11.63339131,2.72194600
11.64005801,2.71416400
11.64672471,2.70073600
11.65339141,2.73033800
11.66005811,2.70577100
11.66672481,2.71645300
11.67339151,2.72927000
11.68005821,2.71324800
11.68672491,2.72286200
11.69339161,2.71279000
11.70005831,2.71370600
11.70672501,2.70897600
11.71339171,2.71370600
11.72005841,2.72087800
11.72672511,2.70577100
11.73339181,2.72499800
11.74005851,2.72026700
11.74672521,2.70714400
11.75339191,2.73461100
11.76005861,2.71126400
11.76672531,2.70653400
11.77339201,2.72225100
11.78005871,2.70821300
11.78672541,2.71706300
11.79339211,2.71660500
11.80005881,2.71965700
11.80672551,2.70500800
11.81339221,2.72545600
11.82005891,2.72789700
11.82672560,2.69615800
11.83339230,2.73217000
11.84005900,2.70760200
11.84672570,2.70592400
11.85339240,2.73003300
11.86005910,2.70836500
11.86672580,2.72240400
11.87339250,2.71218000
11.88005920,2.72377700
11.88672590,2.71599500
11.89339260,2.71157000
11.90005930,2.72270900
11.90672600,2.70317700
11.91339270,2.71385800
11.92005940,2.72637100
11.92672610,2.70790700
11.93339280,2.71874100
11.94005950,2.72042000
11.94672620,2.70653400
11.95339290,2.72515000
11.96005960,2.71889400
11.96672630,2.71218000
11.97339300,2.71538400
11.98005970,2.71172200
11.98672640,2.71477400
11.99339310,2.71660500
12.00005980,2.72469300
12.00672650,2.71385800
12.01339320,2.70882300
12.02005990,2.72209800
12.02672660,2.71706300
12.03339330,2.71446900
12.04006000,2.72728700
12.04672670,2.70256700
12.05339340,2.71370600
12.06006010,2.71843600
12.06672680,2.71614700
12.07339350,2.71492700
12.08006020,2.72270900
12.08672690,2.70836500
12.09339360,2.71538400
12.10006030,2.72194600
12.10672700,2.71584200
12.11339370,2.72209800
12.12006040,2.71218000
12.12672710,2.71584200
12.13339380,2.71446900
12.14006050,2.70989100
12.14672720,2.72576100
12.15339390,2.70394000
12.16006060,2.72133500
12.16672730,2.72042000
12.17339400,2.70729700
12.18006070,2.72698100
12.18672740,2.70989100
12.19339410,2.71126400
12.20006080,2.71538400
12.20672750,2.71095900
12.21339420,2.71462100
12.22006090,2.71324800
12.22672760,2.71584200
12.23339430,2.71523200
12.24006100,2.71218000
12.24672770,2.72728700
12.25339440,2.70622900
12.26006110,2.71370600
12.26672780,2.72072500
12.27339450,2.69768400
12.28006120,2.72087800
12.28672790,2.70867000
12.29339460,2.71706300
12.30006130,2.71736800
12.30672800,2.71401100
12.31339470,2.72042000
12.32006140,2.71172200
12.32672810,2.71233200
12.33339480,2.71584200
12.34006150,2.69966700
12.34672820,2.72133500
12.35339490,2.71248500
12.36006160,2.70378700
12.36672830,2.72515000
12.37339500,2.70119300
12.38006170,2.72301400
12.38672840,2.71477400
12.39339510,2.71706300
12.40006180,2.71981000
12.40672850,2.70073600
12.41339520,2.72911800
12.42006190,2.69814100
12.42672860,2.72026700
12.43339529,2.72423500
12.44006199,2.70012500
12.44672869,2.72743900
12.45339539,2.71446900
12.46006209,2.70867000
12.46672879,2.71950400
12.47339549,2.71752100
12.48006219,2.70760200
12.48672889,2.72042000
12.49339559,2.71477400
12.50006229,2.70775500
12.50672899,2.71782600
12.51339569,2.71157000
12.52006239,2.71889400
12.52672909,2.70668600
12.53339579,2.71981000
12.54006249,2.71004400
12.54672919,2.71172200
12.55339589,2.73003300
12.56006259,2.70409300
12.56672929,2.71996200
12.57339599,2.71385800
12.58006269,2.70958600
12.58672939,2.71767300
12.59339609,2.71080700
12.60006279,2.71767300
12.60672949,2.70500800
12.61339619,2.72148800
12.62006289,2.71080700
12.62672959,2.71157000
12.63339629,2.71706300
12.64006299,2.70821300
12.64672969,2.71004400
12.65339639,2.71797800
12.66006309,2.71355300
12.66672979,2.71019600
12.67339649,2.71599500
12.68006319,2.71019600
12.68672989,2.70561800
12.69339659,2.72820200
12.70006329,2.70592400
12.70672999,2.71385800
12.71339669,2.71477400
12.72006339,2.71584200
12.72673009,2.70729700
12.73339679,2.72026700
12.74006349,2.71340100
12.74673019,2.70149900
12.75339689,2.72301400
12.76006359,2.70622900
12.76673029,2.71538400
12.77339699,2.71477400
12.78006369,2.70745000
12.78673039,2.71569000
12.79339709,2.70729700
12.80006379,2.72393000
12.80673049,2.70455000
12.81339719,2.71538400
12.82006389,2.71279000
12.82673059,2.70882300
12.83339729,2.71294300
12.84006399,2.71462100
12.84673069,2.71279000
12.85339739,2.70775500
12.86006409,2.72331900
12.86673079,2.70531300
12.87339749,2.71599500
12.88006419,2.72347200
12.88673089,2.70073600
12.89339759,2.71782600
12.90006429,2.70577100
12.90673099,2.71370600
12.91339769,2.71172200
12.92006439,2.71279000
12.92673109,2.72270900
12.93339779,2.70012500
12.94006449,2.73049100
12.94673119,2.71034900
12.95339789,2.70912800
12.96006459,2.72530300
12.96673129,2.70165100
12.97339799,2.72331900
12.98006469,2.70073600
12.98673139,2.70958600
12.99339809,2.72072500
13.00006479,2.69814100
13.00673149,2.72545600
13.01339819,2.69692100
13.02006489,2.71340100
13.02673159,2.72469300
13.03339829,2.69493700
13.04006498,2.72530300
13.04673168,2.70729700
13.05339838,2.69661500
13.06006508,2.72606600
13.06673178,2.70775500
13.07339848,2.71218000
13.08006518,2.71401100
13.08673188,2.71019600
13.09339858,2.70745000
13.10006528,2.71828400
13.10673198,2.71355300
13.11339868,2.71248500
13.12006538,2.70622900
13.12673208,2.71538400
13.13339878,2.71630000
13.14006548,2.71233200
13.14673218,2.72103000
13.15339888,2.70592400
13.16006558,2.71538400
13.16673228,2.71904700
13.17339898,2.70287200
13.18006568,2.72225100
13.18673238,2.70470300
13.19339908,2.71492700
13.20006578,2.70912800
13.20673248,2.70836500
13.21339918,2.72743900
13.22006588,2.69539500
13.22673258,2.73125400
13.23339928,2.70439800
13.24006598,2.70653400
13.24673268,2.73842600
13.25339938,2.68837500
13.26006608,2.72713400
13.26673278,2.70256700
13.27339948,2.70714400
13.28006618,2.72408200
13.28673288,2.69768400
13.29339958,2.72759200
13.30006628,2.70073600
13.30673298,2.71279000
13.31339968,2.71874100
13.32006638,2.69737800
13.32673308,2.72301400
13.33339978,2.69997300
13.34006648,2.71507900
13.34673318,2.71065400
13.35339988,2.71294300
13.36006658,2.71645300
13.36673328,2.71095900
13.37339998,2.72225100
13.38006668,2.70592400
13.38673338,2.71141700
13.39340008,2.71736800
13.40006678,2.69509000
13.40673348,2.71889400
13.41340018,2.70256700
13.42006688,2.70531300
13.42673358,2.71874100
13.43340028,2.71034900
13.44006698,2.71416400
13.44673368,2.71462100
13.45340038,2.71691000
13.46006708,2.70821300
13.46673378,2.70897600
13.47340048,2.71202700
13.48006718,2.70317700
13.48673388,2.70958600
13.49340058,2.71507900
13.50006728,2.71065400
13.50673398,2.71126400
13.51340068,2.72759200
13.52006738,2.70958600
13.52673408,2.70531300
13.53340078,2.72377700
13.54006748,2.68364500
13.54673418,2.72530300
13.55340088,2.71126400
13.56006758,2.69997300
13.56673428,2.72164100
13.57340098,2.70561800
13.58006768,2.71569000
13.58673438,2.71370600
13.59340108,2.71599500
13.60006778,2.70592400
13.60673448,2.69768400
13.61340118,2.71828400
13.62006788,2.69829400
13.62673458,2.71095900
13.63340128,2.72026700
13.64006798,2.70485500
13.64673467,2.70973800
13.65340137,2.72011500
13.66006807,2.70653400
13.66673477,2.70958600
13.67340147,2.71507900
13.68006817,2.69310600
13.68673487,2.70958600
13.69340157,2.71294300
13.70006827,2.70775500
13.70673497,2.71233200
13.71340167,2.71889400
13.72006837,2.70638100
13.72673507,2.71004400
13.73340177,2.70653400
13.74006847,2.71492700
13.74673517,2.70653400
13.75340187,2.71263800
13.76006857,2.70363500
13.76673527,2.71218000
13.77340197,2.72637100
13.78006867,2.70317700
13.78673537,2.72606600
13.79340207,2.70531300
13.80006877,2.70149900
13.80673547,2.73827300
13.81340217,2.69234300
13.82006887,2.72087800
13.82673557,2.71218000
13.83340227,2.70104100
13.84006897,2.73079600
13.84673567,2.70348200
13.85340237,2.72896500
13.86006907,2.71111200
13.86673577,2.71172200
13.87340247,2.72530300
13.88006917,2.69692100
13.88673587,2.72087800
13.89340257,2.70073600
13.90006927,2.70577100
13.90673597,2.72209800
13.91340267,2.70943300
13.92006937,2.72087800
13.92673607,2.70882300
13.93340277,2.71416400
13.94006947,2.71721600
13.94673617,2.71263800
13.95340287,2.70439800
13.96006957,2.71721600
13.96673627,2.69890400
13.97340297,2.71645300
13.98006967,2.71294300
13.98673637,2.70394000
13.99340307,2.72576100
14.00006977,2.71065400
14.00673647,2.71080700
14.01340317,2.71462100
14.02006987,2.71019600
14.02673657,2.71736800
14.03340327,2.70745000
14.04006997,2.71233200
14.04673667,2.70912800
14.05340337,2.71065400
14.06007007,2.72469300
14.06673677,2.70409300
14.07340347,2.72362400
14.08007017,2.71889400
14.08673687,2.69890400
14.09340357,2.72499800
14.10007027,2.70134600
14.10673697,2.71202700
14.11340367,2.71279000
14.12007037,2.70363500
14.12673707,2.72072500
14.13340377,2.70439800
14.14007047,2.72728700
14.14673717,2.71416400
14.15340387,2.70668600
14.16007057,2.72698100
14.16673727,2.69341100
14.17340397,2.72133500
14.18007067,2.70943300
14.18673737,2.70256700
14.19340407,2.71782600
14.20007077,2.70088800
14.20673747,2.72301400
14.21340417,2.71218000
14.22007087,2.72393000
14.22673757,2.71843600
14.23340427,2.70195600
14.24007097,2.72820200
14.24673767,2.69753100
14.25340436,2.71630000
14.26007106,2.71141700
14.26673776,2.70607600
14.27340446,2.71797800
14.28007116,2.70943300
14.28673786,2.71569000
14.29340456,2.70867000
14.30007126,2.71874100
14.30673796,2.70912800
14.31340466,2.71065400
14.32007136,2.71218000
14.32673806,2.70394000
14.33340476,2.71248500
14.34007146,2.71248500
14.34673816,2.71370600
14.35340486,2.71660500
14.36007156,2.71462100
14.36673826,2.70622900
14.37340496,2.71126400
14.38007166,2.71172200
14.38673836,2.70622900
14.39340506,2.71202700
14.40007176,2.70653400
14.40673846,2.70668600
14.41340516,2.71507900
14.42007186,2.71706300
14.42673856,2.71401100
14.43340526,2.71919900
14.44007196,2.71477400
14.44673866,2.71172200
14.45340536,2.72087800
14.46007206,2.71706300
14.46673876,2.70348200
14.47340546,2.71889400
14.48007216,2.70867000
14.48673886,2.71340100
14.49340556,2.72255600
14.50007226,2.70653400
14.50673896,2.71294300
14.51340566,2.71202700
14.52007236,2.71233200
14.52673906,2.71065400
14.53340576,2.71446900
14.54007246,2.71324800
14.54673916,2.70775500
14.55340586,2.71324800
14.56007256,2.71950400
14.56673926,2.70317700
14.57340596,2.72255600
14.58007266,2.70745000
14.58673936,2.70638100
14.59340606,2.72347200
14.60007276,2.70577100
14.60673946,2.70851800
14.61340616,2.71507900
14.62007286,2.70592400
14.62673956,2.70989100
14.63340626,2.71843600
14.64007296,2.70134600
14.64673966,2.71599500
14.65340636,2.71477400
14.66007306,2.71492700
14.66673976,2.71492700
14.67340646,2.71248500
14.68007316,2.70973800
14.68673986,2.70668600
14.69340656,2.71004400
14.70007326,2.71370600
14.70673996,2.70012500
14.71340666,2.72896500
14.72007336,2.70622900
14.72674006,2.71630000
14.73340676,2.71950400
14.74007346,2.70561800
14.74674016,2.71736800
14.75340686,2.71095900
14.76007356,2.71340100
14.76674026,2.71034900
14.77340696,2.71767300
14.78007366,2.71157000
14.78674036,2.70607600
14.79340706,2.73094900
14.80007376,2.70973800
14.80674046,2.71767300
14.81340716,2.72515000
14.82007386,2.69325900
14.82674056,2.72957500
14.83340726,2.70241400
14.84007396,2.71645300
14.84674066,2.72484500
14.85340736,2.70134600
14.86007405,2.72621800
14.86674075,2.71202700
14.87340745,2.72240400
14.88007415,2.71599500
14.88674085,2.70149900
14.89340755,2.72331900
14.90007425,2.69371600
14.90674095,2.73079600
14.91340765,2.70363500
14.92007435,2.71614700
14.92674105,2.73171200
14.93340775,2.70348200
14.94007445,2.73049100
14.94674115,2.70897600
14.95340785,2.71446900
14.96007455,2.71904700
14.96674125,2.70043000
14.97340795,2.73094900
14.98007465,2.69463200
14.98674135,2.72377700
14.99340805,2.70653400
15.00007475,2.71736800
15.00674145,2.71965700
15.01340815,2.71691000
15.02007485,2.71889400
15.02674155,2.70607600
15.03340825,2.73003300
15.04007495,2.68776500
15.04674165,2.73232200
15.05340835,2.70882300
15.06007505,2.68761300
15.06674175,2.74849700
15.07340845,2.68196700
15.08007515,2.73293300
15.08674185,2.72042000
15.09340855,2.69310600
15.10007525,2.73796800
15.10674195,2.69447900
15.11340865,2.73323800
15.12007535,2.70745000
15.12674205,2.70745000
15.13340875,2.72759200
15.14007545,2.68578100
15.14674215,2.74300400
15.15340885,2.70516100
15.16007555,2.71126400
15.16674225,2.72484500
15.17340895,2.70271900
15.18007565,2.72301400
15.18674235,2.71324800
15.19340905,2.72362400
15.20007575,2.70699200
15.20674245,2.71538400
15.21340915,2.72194600
15.22007585,2.70592400
15.22674255,2.72347200
15.23340925,2.71492700
15.24007595,2.71141700
15.24674265,2.72103000
15.25340935,2.71355300
15.26007605,2.72042000
15.26674275,2.71584200
15.27340945,2.71095900
15.28007615,2.71706300
15.28674285,2.71477400
15.29340955,2.71981000
15.30007625,2.70882300
15.30674295,2.71538400
15.31340965,2.70943300
15.32007635,2.71843600
15.32674305,2.71904700
15.33340975,2.71523200
15.34007645,2.72286200
15.34674315,2.70622900
15.35340985,2.72286200
15.36007655,2.71889400
15.36674325,2.70363500
15.37340995,2.73262700
15.38007665,2.69997300
15.38674335,2.72576100
15.39341005,2.71874100
15.40007675,2.71019600
15.40674345,2.72545600
15.41341015,2.71065400
15.42007685,2.71904700
15.42674355,2.71492700
15.43341025,2.70851800
15.44007695,2.72118300
15.44674365,2.69982000
15.45341035,2.71843600
15.46007705,2.71523200
15.46674374,2.71279000
15.47341044,2.72728700
15.48007714,2.70882300
15.48674384,2.71202700
15.49341054,2.71095900
15.50007724,2.70378700
15.50674394,2.71843600
15.51341064,2.71355300
15.52007734,2.70653400
15.52674404,2.72408200
15.53341074,2.70577100
15.54007744,2.72881200
15.54674414,2.71767300
15.55341084,2.70638100
15.56007754,2.74056200
15.56674424,2.68196700
15.57341094,2.73552700
15.58007764,2.71157000
15.58674434,2.69859900
15.59341104,2.74788700
15.60007774,2.68517100
15.60674444,2.73918900
15.61341114,2.71157000
15.62007784,2.71004400
15.62674454,2.73644200
15.63341124,2.68807000
15.64007794,2.73949400
15.64674464,2.69539500
15.65341134,2.71645300
15.66007804,2.73506900
15.66674474,2.68913800
15.67341144,2.74590300
15.68007814,2.70592400
15.68674484,2.71446900
15.69341154,2.73964700
15.70007824,2.69386900
15.70674494,2.72530300
15.71341164,2.70668600
15.72007834,2.70027800
15.72674504,2.73857900
15.73341174,2.69966700
15.74007844,2.73217000
15.74674514,2.71401100
15.75341184,2.70867000
15.76007854,2.73171200
15.76674524,2.69646300
15.77341194,2.72621800
15.78007864,2.70119300
15.78674534,2.70714400
15.79341204,2.71843600
15.80007874,2.71157000
15.80674544,2.71889400
15.81341214,2.72118300
15.82007884,2.71004400
15.82674554,2.71736800
15.83341224,2.71843600
15.84007894,2.71095900
15.84674564,2.70912800
15.85341234,2.71065400
15.86007904,2.70485500
15.86674574,2.71996200
15.87341244,2.71370600
15.88007914,2.71660500
15.88674584,2.70912800
15.89341254,2.71385800
15.90007924,2.71507900
15.90674594,2.70622900
15.91341264,2.72194600
15.92007934,2.69432700
15.92674604,2.71111200
15.93341274,2.71691000
15.94007944,2.71019600
15.94674614,2.72011500
15.95341284,2.70821300
15.96007954,2.71324800
15.96674624,2.70455000
15.97341294,2.71950400
15.98007964,2.70409300
15.98674634,2.70622900
15.99341304,2.70943300
16.00007974,2.70485500
16.00674644,2.71218000
16.01341314,2.71599500
16.02007984,2.72148800
16.02674654,2.70455000
16.03341324,2.71202700
16.04007994,2.71324800
16.04674664,2.70210900
16.05341334,2.72774400
16.06008004,2.69722600
16.06674674,2.71446900
16.07341343,2.71782600
16.08008013,2.70287200
16.08674683,2.73079600
16.09341353,2.71355300
16.10008023,2.71141700
16.10674693,2.71523200
16.11341363,2.70149900
16.12008033,2.72133500
16.12674703,2.70958600
16.13341373,2.71645300
16.14008043,2.71507900
16.14674713,2.70531300
16.15341383,2.72850700
16.16008053,2.70989100
16.16674723,2.72728700
16.17341393,2.70668600
16.18008063,2.71584200
16.18674733,2.70439800
16.19341403,2.71004400
16.20008073,2.71919900
16.20674743,2.70226100
