Time,Channel A
(s),(V)

0.00000000,3.63246600
0.00666670,3.63139700
0.01333340,3.63261800
0.02000010,3.63185500
0.02666680,3.63231300
0.03333350,3.63475400
0.04000020,3.63322900
0.04666690,3.63490700
0.05333360,3.63460200
0.06000030,3.63322900
0.06666700,3.64070600
0.07333370,3.63429700
0.08000040,3.63399100
0.08666710,3.63551700
0.09333380,3.63353400
0.10000050,3.63261800
0.10666720,3.63780600
0.11333390,3.63322900
0.12000060,3.63460200
0.12666730,3.63429700
0.13333400,3.63444900
0.14000070,3.63582300
0.14666740,3.63490700
0.15333410,3.63155000
0.16000080,3.63521200
0.16666750,3.63444900
0.17333420,3.63429700
0.18000090,3.63399100
0.18666760,3.63307600
0.19333430,3.63490700
0.20000100,3.63277100
0.20666770,3.63551700
0.21333440,3.63200800
0.22000110,3.63246600
0.22666780,3.63567000
0.23333450,3.63155000
0.24000120,3.63429700
0.24666790,3.63490700
0.25333460,3.63231300
0.26000130,3.63399100
0.26666800,3.63307600
0.27333470,3.63383900
0.28000140,3.63322900
0.28666810,3.63139700
0.29333480,3.63200800
0.30000150,3.62956600
0.30666819,3.63460200
0.31333489,3.63338100
0.32000159,3.62987200
0.32666829,3.63490700
0.33333499,3.62727700
0.34000169,3.63338100
0.34666839,3.63353400
0.35333509,3.63063500
0.36000179,3.63399100
0.36666849,3.62697200
0.37333519,3.63185500
0.38000189,3.62941400
0.38666859,3.63216000
0.39333529,3.63628000
0.40000199,3.62895600
0.40666869,3.63353400
0.41333539,3.63155000
0.42000209,3.63246600
0.42666879,3.63551700
0.43333549,3.63094000
0.44000219,3.63277100
0.44666889,3.63383900
0.45333559,3.63322900
0.46000229,3.63383900
0.46666899,3.63506000
0.47333569,3.63582300
0.48000239,3.63307600
0.48666909,3.63475400
0.49333579,3.63094000
0.50000249,3.63444900
0.50666919,3.63383900
0.51333589,3.63246600
0.52000259,3.63322900
0.52666929,3.63780600
0.53333599,3.63368600
0.54000269,3.63216000
0.54666939,3.63368600
0.55333609,3.63139700
0.56000279,3.63094000
0.56666949,3.63368600
0.57333619,3.63322900
0.58000289,3.63338100
0.58666959,3.63399100
0.59333629,3.63490700
0.60000299,3.63307600
0.60666969,3.63643300
0.61333639,3.63521200
0.62000309,3.63383900
0.62666979,3.63506000
0.63333649,3.63399100
0.64000319,3.63444900
0.64666989,3.63475400
0.65333659,3.62987200
0.66000329,3.63063500
0.66666999,3.63338100
0.67333669,3.63490700
0.68000339,3.63444900
0.68667009,3.63383900
0.69333679,3.63338100
0.70000349,3.63353400
0.70667019,3.63658500
0.71333689,3.63231300
0.72000359,3.63429700
0.72667029,3.63551700
0.73333699,3.63078700
0.74000369,3.63307600
0.74667039,3.63506000
0.75333709,3.63353400
0.76000379,3.63368600
0.76667049,3.63338100
0.77333719,3.63567000
0.78000389,3.63048200
0.78667059,3.63307600
0.79333729,3.63078700
0.80000399,3.62926100
0.80667069,3.63490700
0.81333739,3.63368600
0.82000409,3.63155000
0.82667079,3.63628000
0.83333749,3.63246600
0.84000419,3.63612800
0.84667089,3.63353400
0.85333759,3.63444900
0.86000429,3.63368600
0.86667099,3.63490700
0.87333769,3.63460200
0.88000439,3.63124500
0.88667109,3.63597500
0.89333779,3.63429700
0.90000449,3.63353400
0.90667119,3.63734900
0.91333788,3.63048200
0.92000458,3.63521200
0.92667128,3.63490700
0.93333798,3.63399100
0.94000468,3.63322900
0.94667138,3.63338100
0.95333808,3.63429700
0.96000478,3.63444900
0.96667148,3.63658500
0.97333818,3.63506000
0.98000488,3.63216000
0.98667158,3.63383900
0.99333828,3.63261800
1.00000498,3.63155000
1.00667168,3.63612800
1.01333838,3.63200800
1.02000508,3.63216000
1.02667178,3.63551700
1.03333848,3.63399100
1.04000518,3.63567000
1.04667188,3.63582300
1.05333858,3.63277100
1.06000528,3.63338100
1.06667198,3.63429700
1.07333868,3.63322900
1.08000538,3.63200800
1.08667208,3.63399100
1.09333878,3.63109200
1.10000548,3.63322900
1.10667218,3.63521200
1.11333888,3.63322900
1.12000558,3.63399100
1.12667228,3.63338100
1.13333898,3.63078700
1.14000568,3.63261800
1.14667238,3.63429700
1.15333908,3.63261800
1.16000578,3.63216000
1.16667248,3.63231300
1.17333918,3.63475400
1.18000588,3.63216000
1.18667258,3.63460200
1.19333928,3.63216000
1.20000598,3.63185500
1.20667268,3.63475400
1.21333938,3.62819300
1.22000608,3.63231300
1.22667278,3.63429700
1.23333948,3.63185500
1.24000618,3.63231300
1.24667288,3.63597500
1.25333958,3.63704300
1.26000628,3.63383900
1.26667298,3.63521200
1.27333968,3.63185500
1.28000638,3.63338100
1.28667308,3.63429700
1.29333978,3.63261800
1.30000648,3.63353400
1.30667318,3.63383900
1.31333988,3.63689100
1.32000658,3.63506000
1.32667328,3.63658500
1.33333998,3.63582300
1.34000668,3.63383900
1.34667338,3.63383900
1.35334008,3.63200800
1.36000678,3.63429700
1.36667348,3.63628000
1.37334018,3.63216000
1.38000688,3.63353400
1.38667358,3.63719600
1.39334028,3.63612800
1.40000698,3.63383900
1.40667368,3.63521200
1.41334038,3.63277100
1.42000708,3.63338100
1.42667378,3.63383900
1.43334048,3.63231300
1.44000718,3.63475400
1.44667388,3.63643300
1.45334058,3.63399100
1.46000728,3.63506000
1.46667398,3.63689100
1.47334068,3.63704300
1.48000738,3.63353400
1.48667408,3.63246600
1.49334078,3.63261800
1.50000748,3.63399100
1.50667418,3.63551700
1.51334088,3.63231300
1.52000757,3.63551700
1.52667427,3.63628000
1.53334097,3.63597500
1.54000767,3.63444900
1.54667437,3.63399100
1.55334107,3.63490700
1.56000777,3.63231300
1.56667447,3.63368600
1.57334117,3.63307600
1.58000787,3.63551700
1.58667457,3.63826400
1.59334127,3.63368600
1.60000797,3.63368600
1.60667467,3.63780600
1.61334137,3.63338100
1.62000807,3.63444900
1.62667477,3.63155000
1.63334147,3.63353400
1.64000817,3.63383900
1.64667487,3.63475400
1.65334157,3.63490700
1.66000827,3.63460200
1.66667497,3.63750100
1.67334167,3.63444900
1.68000837,3.63383900
1.68667507,3.63734900
1.69334177,3.63475400
1.70000847,3.63368600
1.70667517,3.63277100
1.71334187,3.63307600
1.72000857,3.63612800
1.72667527,3.63811200
1.73334197,3.63460200
1.74000867,3.63353400
1.74667537,3.63750100
1.75334207,3.63277100
1.76000877,3.63460200
1.76667547,3.63643300
1.77334217,3.62834500
1.78000887,3.63506000
1.78667557,3.63582300
1.79334227,3.63109200
1.80000897,3.63383900
1.80667567,3.63216000
1.81334237,3.63643300
1.82000907,3.63582300
1.82667577,3.63444900
1.83334247,3.63750100
1.84000917,3.63231300
1.84667587,3.63460200
1.85334257,3.63155000
1.86000927,3.63338100
1.86667597,3.63811200
1.87334267,3.63017700
1.88000937,3.63353400
1.88667607,3.63521200
1.89334277,3.63307600
1.90000947,3.63612800
1.90667617,3.63246600
1.91334287,3.63582300
1.92000957,3.63475400
1.92667627,3.63399100
1.93334297,3.63490700
1.94000967,3.63261800
1.94667637,3.63719600
1.95334307,3.63353400
1.96000977,3.63155000
1.96667647,3.63643300
1.97334317,3.63307600
1.98000987,3.63261800
1.98667657,3.63490700
1.99334327,3.62453100
2.00000997,3.62636200
2.00667667,3.63841700
2.01334337,3.62025800
2.02001007,3.63887500
2.02667677,3.60728800
2.03334347,3.63216000
2.04001017,3.62987200
2.04667687,3.60850900
2.05334357,3.62453100
2.06001027,3.57341200
2.06667697,3.62331000
2.07334367,3.62224200
2.08001037,3.61232300
2.08667707,3.63567000
2.09334377,3.61400200
2.10001047,3.63231300
2.10667717,3.63307600
2.11334387,3.62651400
2.12001057,3.63368600
2.12667726,3.62102100
2.13334396,3.62987200
2.14001066,3.62605700
2.14667736,3.63246600
2.15334406,3.63582300
2.16001076,3.62941400
2.16667746,3.63399100
2.17334416,3.63597500
2.18001086,3.63689100
2.18667756,3.63643300
2.19334426,3.63109200
2.20001096,3.63307600
2.20667766,3.63704300
2.21334436,3.63521200
2.22001106,3.63460200
2.22667776,3.63444900
2.23334446,3.63628000
2.24001116,3.63551700
2.24667786,3.63597500
2.25334456,3.63582300
2.26001126,3.63582300
2.26667796,3.63734900
2.27334466,3.63490700
2.28001136,3.63353400
2.28667806,3.63872200
2.29334476,3.63765400
2.30001146,3.63506000
2.30667816,3.63841700
2.31334486,3.63658500
2.32001156,3.63734900
2.32667826,3.63750100
2.33334496,3.63338100
2.34001166,3.63490700
2.34667836,3.63734900
2.35334506,3.63704300
2.36001176,3.63277100
2.36667846,3.63597500
2.37334516,3.63750100
2.38001186,3.63383900
2.38667856,3.63643300
2.39334526,3.63658500
2.40001196,3.63765400
2.40667866,3.63948500
2.41334536,3.62926100
2.42001206,3.63506000
2.42667876,3.63948500
2.43334546,3.63643300
2.44001216,3.63597500
2.44667886,3.63353400
2.45334556,3.63826400
2.46001226,3.63719600
2.46667896,3.63338100
2.47334566,3.63734900
2.48001236,3.63338100
2.48667906,3.63689100
2.49334576,3.63475400
2.50001246,3.63338100
2.50667916,3.64055300
2.51334586,3.63612800
2.52001256,3.63368600
2.52667926,3.63582300
2.53334596,3.63582300
2.54001266,3.63582300
2.54667936,3.63597500
2.55334606,3.63490700
2.56001276,3.63429700
2.56667946,3.63506000
2.57334616,3.63658500
2.58001286,3.63322900
2.58667956,3.63841700
2.59334626,3.63506000
2.60001296,3.63383900
2.60667966,3.63460200
2.61334636,3.63521200
2.62001306,3.63750100
2.62667976,3.63338100
2.63334646,3.63444900
2.64001316,3.63231300
2.64667986,3.63643300
2.65334656,3.63734900
2.66001326,3.63383900
2.66667996,3.63628000
2.67334666,3.63353400
2.68001336,3.63521200
2.68668006,3.63582300
2.69334676,3.63200800
2.70001346,3.63490700
2.70668016,3.63765400
2.71334686,3.63078700
2.72001356,3.63521200
2.72668026,3.63734900
2.73334695,3.63551700
2.74001365,3.63551700
2.74668035,3.63322900
2.75334705,3.63521200
2.76001375,3.63551700
2.76668045,3.63750100
2.77334715,3.63399100
2.78001385,3.63460200
2.78668055,3.63643300
2.79334725,3.63506000
2.80001395,3.63444900
2.80668065,3.63597500
2.81334735,3.63048200
2.82001405,3.63551700
2.82668075,3.63368600
2.83334745,3.63582300
2.84001415,3.63612800
2.84668085,3.63521200
2.85334755,3.63490700
2.86001425,3.63261800
2.86668095,3.63719600
2.87334765,3.63475400
2.88001435,3.63521200
2.88668105,3.63719600
2.89334775,3.63277100
2.90001445,3.63506000
2.90668115,3.63582300
2.91334785,3.63399100
2.92001455,3.63399100
2.92668125,3.63612800
2.93334795,3.63338100
2.94001465,3.63368600
2.94668135,3.63612800
2.95334805,3.63429700
2.96001475,3.63521200
2.96668145,3.63551700
2.97334815,3.63338100
2.98001485,3.63506000
2.98668155,3.63551700
2.99334825,3.63475400
3.00001495,3.63185500
3.00668165,3.63628000
3.01334835,3.63521200
3.02001505,3.63490700
3.02668175,3.63597500
3.03334845,3.63139700
3.04001515,3.63765400
3.04668185,3.63444900
3.05334855,3.63444900
3.06001525,3.63551700
3.06668195,3.63460200
3.07334865,3.63490700
3.08001535,3.63246600
3.08668205,3.63551700
3.09334875,3.63231300
3.10001545,3.63200800
3.10668215,3.63689100
3.11334885,3.63002400
3.12001555,3.63521200
3.12668225,3.63612800
3.13334895,3.63048200
3.14001565,3.63643300
3.14668235,3.63155000
3.15334905,3.63521200
3.16001575,3.63185500
3.16668245,3.63246600
3.17334915,3.63612800
3.18001585,3.62941400
3.18668255,3.63551700
3.19334925,3.63124500
3.20001595,3.63399100
3.20668265,3.63734900
3.21334935,3.63002400
3.22001605,3.63444900
3.22668275,3.63460200
3.23334945,3.63261800
3.24001615,3.63429700
3.24668285,3.63261800
3.25334955,3.63582300
3.26001625,3.63216000
3.26668295,3.63444900
3.27334965,3.63261800
3.28001635,3.63383900
3.28668305,3.63765400
3.29334975,3.62590400
3.30001645,3.63063500
3.30668315,3.63429700
3.31334985,3.63399100
3.32001655,3.63551700
3.32668325,3.63200800
3.33334995,3.63444900
3.34001664,3.63338100
3.34668334,3.63567000
3.35335004,3.63383900
3.36001674,3.63368600
3.36668344,3.63704300
3.37335014,3.63017700
3.38001684,3.63277100
3.38668354,3.63338100
3.39335024,3.63261800
3.40001694,3.63383900
3.40668364,3.63246600
3.41335034,3.63506000
3.42001704,3.63155000
3.42668374,3.63567000
3.43335044,3.63475400
3.44001714,3.63231300
3.44668384,3.63628000
3.45335054,3.62987200
3.46001724,3.63444900
3.46668394,3.63460200
3.47335064,3.63124500
3.48001734,3.63353400
3.48668404,3.63338100
3.49335074,3.63368600
3.50001744,3.63444900
3.50668414,3.63124500
3.51335084,3.63353400
3.52001754,3.63338100
3.52668424,3.63399100
3.53335094,3.63475400
3.54001764,3.63200800
3.54668434,3.63582300
3.55335104,3.63231300
3.56001774,3.63216000
3.56668444,3.63704300
3.57335114,3.63155000
3.58001784,3.63444900
3.58668454,3.63139700
3.59335124,3.63109200
3.60001794,3.63261800
3.60668464,3.63277100
3.61335134,3.62422600
3.62001804,3.62254700
3.62668474,3.63551700
3.63335144,3.54731900
3.64001814,3.58211000
3.64668484,3.53923200
3.65335154,3.51542700
3.66001824,3.51847900
3.66668494,3.04696800
3.67335164,3.44126700
3.68001834,3.55647400
3.68668504,3.28974300
3.69335174,3.48628200
3.70001844,3.29294700
3.70668514,3.50505100
3.71335184,3.58333100
3.72001854,3.48094100
3.72668524,3.58287300
3.73335194,3.45744200
3.74001864,3.57631200
3.74668534,3.54197800
3.75335204,3.58684000
3.76001874,3.61705400
3.76668544,3.53892600
3.77335214,3.58424600
3.78001884,3.49711600
3.78668554,3.59172300
3.79335224,3.60637200
3.80001894,3.55357500
3.80668564,3.59462300
3.81335234,3.50276200
3.82001904,3.60316800
3.82668574,3.61201800
3.83335244,3.58470400
3.84001914,3.61919000
3.84668584,3.56883500
3.85335254,3.62590400
3.86001924,3.61354400
3.86668594,3.61491800
3.87335264,3.63277100
3.88001934,3.60194700
3.88668604,3.62956600
3.89335274,3.60423600
3.90001944,3.62315800
3.90668614,3.63338100
3.91335284,3.61354400
3.92001954,3.62773500
3.92668624,3.61232300
3.93335294,3.62758300
3.94001964,3.62941400
3.94668633,3.61888500
3.95335303,3.62956600
3.96001973,3.61796900
3.96668643,3.62804000
3.97335313,3.62895600
3.98001983,3.62483600
3.98668653,3.63277100
3.99335323,3.62529400
4.00001993,3.62849800
4.00668663,3.63139700
4.01335333,3.62727700
4.02002003,3.63124500
4.02668673,3.62819300
4.03335343,3.62682000
4.04002013,3.63063500
4.04668683,3.63017700
4.05335353,3.63109200
4.06002023,3.62758300
4.06668693,3.63109200
4.07335363,3.63109200
4.08002033,3.62712500
4.08668703,3.63231300
4.09335373,3.62895600
4.10002043,3.62941400
4.10668713,3.63216000
4.11335383,3.62895600
4.12002053,3.63231300
4.12668723,3.63383900
4.13335393,3.63124500
4.14002063,3.63109200
4.14668733,3.63383900
4.15335403,3.63628000
4.16002073,3.63246600
4.16668743,3.63475400
4.17335413,3.63322900
4.18002083,3.63338100
4.18668753,3.63628000
4.19335423,3.63216000
4.20002093,3.63322900
4.20668763,3.63567000
4.21335433,3.63185500
4.22002103,3.63124500
4.22668773,3.63368600
4.23335443,3.63444900
4.24002113,3.63353400
4.24668783,3.62987200
4.25335453,3.63307600
4.26002123,3.63261800
4.26668793,3.63521200
4.27335463,3.63338100
4.28002133,3.63139700
4.28668803,3.63399100
4.29335473,3.63902700
4.30002143,3.63353400
4.30668813,3.63506000
4.31335483,3.63322900
4.32002153,3.63017700
4.32668823,3.63460200
4.33335493,3.62849800
4.34002163,3.63429700
4.34668833,3.63521200
4.35335503,3.63063500
4.36002173,3.63231300
4.36668843,3.63124500
4.37335513,3.63322900
4.38002183,3.63155000
4.38668853,3.62956600
4.39335523,3.63155000
4.40002193,3.63002400
4.40668863,3.63368600
4.41335533,3.63246600
4.42002203,3.63200800
4.42668873,3.63521200
4.43335543,3.63261800
4.44002213,3.63261800
4.44668883,3.63261800
4.45335553,3.63094000
4.46002223,3.63261800
4.46668893,3.63048200
4.47335563,3.63017700
4.48002233,3.63277100
4.48668903,3.63322900
4.49335573,3.63063500
4.50002243,3.62880300
4.50668913,3.63216000
4.51335583,3.63261800
4.52002253,3.62895600
4.52668923,3.63399100
4.53335593,3.62849800
4.54002263,3.62971900
4.54668933,3.63322900
4.55335602,3.62819300
4.56002272,3.63017700
4.56668942,3.63002400
4.57335612,3.63246600
4.58002282,3.63002400
4.58668952,3.62895600
4.59335622,3.63200800
4.60002292,3.63124500
4.60668962,3.63231300
4.61335632,3.62926100
4.62002302,3.63094000
4.62668972,3.63368600
4.63335642,3.63216000
4.64002312,3.62208900
4.64668982,3.61964800
4.65335652,3.63811200
4.66002322,3.56914000
4.66668992,3.61613800
4.67335662,3.56791900
4.68002332,3.59477500
4.68669002,3.61018700
4.69335672,3.43821500
4.70002342,3.54472500
4.70669012,3.56242600
4.71335682,3.52549800
4.72002352,3.58531500
4.72669022,3.47697400
4.73335692,3.58867100
4.74002362,3.59843800
4.74669032,3.57783700
4.75335702,3.61613800
4.76002372,3.54991300
4.76669042,3.61568000
4.77335712,3.60591500
4.78002382,3.60087900
4.78669052,3.62605700
4.79335722,3.57585400
4.80002392,3.62331000
4.80669062,3.58745100
4.81335732,3.61049200
4.82002402,3.62941400
4.82669072,3.60576200
4.83335742,3.63353400
4.84002412,3.59569100
4.84669082,3.62895600
4.85335752,3.63139700
4.86002422,3.60820300
4.86669092,3.63017700
4.87335762,3.59736900
4.88002432,3.62804000
4.88669102,3.62529400
4.89335772,3.62270000
4.90002442,3.63200800
4.90669112,3.62971900
4.91335782,3.63307600
4.92002452,3.62605700
4.92669122,3.63277100
4.93335792,3.63185500
4.94002462,3.62880300
4.94669132,3.63231300
4.95335802,3.62208900
4.96002472,3.63277100
4.96669142,3.62727700
4.97335812,3.62819300
4.98002482,3.62941400
4.98669152,3.63200800
4.99335822,3.63063500
5.00002492,3.62727700
5.00669162,3.63246600
5.01335832,3.62697200
5.02002502,3.63139700
5.02669172,3.62987200
5.03335842,3.62483600
5.04002512,3.63307600
5.04669182,3.63048200
5.05335852,3.63094000
5.06002522,3.63048200
5.06669192,3.62926100
5.07335862,3.63368600
5.08002532,3.62651400
5.08669202,3.63124500
5.09335872,3.62849800
5.10002542,3.63063500
5.10669212,3.63246600
5.11335882,3.62575100
5.12002552,3.63155000
5.12669222,3.62971900
5.13335892,3.63216000
5.14002562,3.63139700
5.14669232,3.62575100
5.15335902,3.63338100
5.16002571,3.62392000
5.16669241,3.63155000
5.17335911,3.62804000
5.18002581,3.62804000
5.18669251,3.63307600
5.19335921,3.62422600
5.20002591,3.62971900
5.20669261,3.63460200
5.21335931,3.62743000
5.22002601,3.63109200
5.22669271,3.62422600
5.23335941,3.62895600
5.24002611,3.62834500
5.24669281,3.63002400
5.25335951,3.63185500
5.26002621,3.62620900
5.26669291,3.62956600
5.27335961,3.62819300
5.28002631,3.62941400
5.28669301,3.63307600
5.29335971,3.62575100
5.30002641,3.62834500
5.30669311,3.62895600
5.31335981,3.62468300
5.32002651,3.63094000
5.32669321,3.62727700
5.33335991,3.63002400
5.34002661,3.62849800
5.34669331,3.63338100
5.35336001,3.63307600
5.36002671,3.62437800
5.36669341,3.63124500
5.37336011,3.62514100
5.38002681,3.63048200
5.38669351,3.62941400
5.39336021,3.62620900
5.40002691,3.63078700
5.40669361,3.62620900
5.41336031,3.62956600
5.42002701,3.63124500
5.42669371,3.63399100
5.43336041,3.63078700
5.44002711,3.62971900
5.44669381,3.63017700
5.45336051,3.62941400
5.46002721,3.63185500
5.46669391,3.63063500
5.47336061,3.62804000
5.48002731,3.63078700
5.48669401,3.63261800
5.49336071,3.63231300
5.50002741,3.62895600
5.50669411,3.63307600
5.51336081,3.62773500
5.52002751,3.63124500
5.52669421,3.63124500
5.53336091,3.63017700
5.54002761,3.62849800
5.54669431,3.62849800
5.55336101,3.63017700
5.56002771,3.62941400
5.56669441,3.62727700
5.57336111,3.62987200
5.58002781,3.62208900
5.58669451,3.62849800
5.59336121,3.62178400
5.60002791,3.62315800
5.60669461,3.63231300
5.61336131,3.61995300
5.62002801,3.62468300
5.62669471,3.62437800
5.63336141,3.62956600
5.64002811,3.63216000
5.64669481,3.62834500
5.65336151,3.63124500
5.66002821,3.62712500
5.66669491,3.63246600
5.67336161,3.63322900
5.68002831,3.62758300
5.68669501,3.63307600
5.69336171,3.62056300
5.70002841,3.63322900
5.70669511,3.63506000
5.71336181,3.62758300
5.72002851,3.63261800
5.72669521,3.62651400
5.73336191,3.63124500
5.74002861,3.63063500
5.74669531,3.63078700
5.75336201,3.63231300
5.76002871,3.62712500
5.76669540,3.63307600
5.77336210,3.62605700
5.78002880,3.63094000
5.78669550,3.63689100
5.79336220,3.62498900
5.80002890,3.62971900
5.80669560,3.62773500
5.81336230,3.63261800
5.82002900,3.63322900
5.82669570,3.62834500
5.83336240,3.63231300
5.84002910,3.62727700
5.84669580,3.63338100
5.85336250,3.63246600
5.86002920,3.62926100
5.86669590,3.63399100
5.87336260,3.62514100
5.88002930,3.63155000
5.88669600,3.63429700
5.89336270,3.62956600
5.90002940,3.63353400
5.90669610,3.62895600
5.91336280,3.63124500
5.92002950,3.63246600
5.92669620,3.63444900
5.93336290,3.63124500
5.94002960,3.63109200
5.94669630,3.63628000
5.95336300,3.63078700
5.96002970,3.63353400
5.96669640,3.63429700
5.97336310,3.62880300
5.98002980,3.63399100
5.98669650,3.63231300
5.99336320,3.63078700
6.00002990,3.63338100
6.00669660,3.63490700
6.01336330,3.63338100
6.02003000,3.63277100
6.02669670,3.63597500
6.03336340,3.63231300
6.04003010,3.63231300
6.04669680,3.63353400
6.05336350,3.63078700
6.06003020,3.63277100
6.06669690,3.63506000
6.07336360,3.63353400
6.08003030,3.63185500
6.08669700,3.63277100
6.09336370,3.63322900
6.10003040,3.63094000
6.10669710,3.63490700
6.11336380,3.63200800
6.12003050,3.62956600
6.12669720,3.63246600
6.13336390,3.63216000
6.14003060,3.63368600
6.14669730,3.63444900
6.15336400,3.63139700
6.16003070,3.63063500
6.16669740,3.63200800
6.17336410,3.63460200
6.18003080,3.62712500
6.18669750,3.63353400
6.19336420,3.63139700
6.20003090,3.62926100
6.20669760,3.63383900
6.21336430,3.62773500
6.22003100,3.63490700
6.22669770,3.63002400
6.23336440,3.62941400
6.24003110,3.62971900
6.24669780,3.63551700
6.25336450,3.63689100
6.26003120,3.62773500
6.26669790,3.63200800
6.27336460,3.62498900
6.28003130,3.63063500
6.28669800,3.63567000
6.29336470,3.62926100
6.30003140,3.62895600
6.30669810,3.62895600
6.31336480,3.63094000
6.32003150,3.63353400
6.32669820,3.63216000
6.33336490,3.63139700
6.34003160,3.63017700
6.34669830,3.62132600
6.35336500,3.63124500
6.36003170,3.62971900
6.36669839,3.63185500
6.37336509,3.63246600
6.38003179,3.62315800
6.38669849,3.62941400
6.39336519,3.63155000
6.40003189,3.63338100
6.40669859,3.63383900
6.41336529,3.61980000
6.42003199,3.62880300
6.42669869,3.63078700
6.43336539,3.63139700
6.44003209,3.63353400
6.44669879,3.62178400
6.45336549,3.62682000
6.46003219,3.63017700
6.46669889,3.63078700
6.47336559,3.63139700
6.48003229,3.62437800
6.48669899,3.63048200
6.49336569,3.62926100
6.50003239,3.63078700
6.50669909,3.62819300
6.51336579,3.63094000
6.52003249,3.62315800
6.52669919,3.62697200
6.53336589,3.63338100
6.54003259,3.61980000
6.54669929,3.63063500
6.55336599,3.62300500
6.56003269,3.62270000
6.56669939,3.62819300
6.57336609,3.62346300
6.58003279,3.63475400
6.58669949,3.62849800
6.59336619,3.62437800
6.60003289,3.62498900
6.60669959,3.63277100
6.61336629,3.63200800
6.62003299,3.62727700
6.62669969,3.62773500
6.63336639,3.63094000
6.64003309,3.63048200
6.64669979,3.63277100
6.65336649,3.62819300
6.66003319,3.62682000
6.66669989,3.63567000
6.67336659,3.62453100
6.68003329,3.62895600
6.68669999,3.63200800
6.69336669,3.62758300
6.70003339,3.63048200
6.70670009,3.62498900
6.71336679,3.63460200
6.72003349,3.63277100
6.72670019,3.63246600
6.73336689,3.63338100
6.74003359,3.62651400
6.74670029,3.63307600
6.75336699,3.63155000
6.76003369,3.63124500
6.76670039,3.63200800
6.77336709,3.63002400
6.78003379,3.62941400
6.78670049,3.63551700
6.79336719,3.63231300
6.80003389,3.63353400
6.80670059,3.63383900
6.81336729,3.62758300
6.82003399,3.63444900
6.82670069,3.63124500
6.83336739,3.63200800
6.84003409,3.63109200
6.84670079,3.63048200
6.85336749,3.63307600
6.86003419,3.63017700
6.86670089,3.63597500
6.87336759,3.62956600
6.88003429,3.63216000
6.88670099,3.63444900
6.89336769,3.62773500
6.90003439,3.63231300
6.90670109,3.63216000
6.91336779,3.62727700
6.92003449,3.63109200
6.92670119,3.63200800
6.93336789,3.63399100
6.94003459,3.63338100
6.94670129,3.63353400
6.95336799,3.63048200
6.96003469,3.62971900
6.96670139,3.63368600
6.97336808,3.62971900
6.98003478,3.63155000
6.98670148,3.63200800
6.99336818,3.62865100
7.00003488,3.63094000
7.00670158,3.63078700
7.01336828,3.63322900
7.02003498,3.63048200
7.02670168,3.62926100
7.03336838,3.63200800
7.04003508,3.62941400
7.04670178,3.63506000
7.05336848,3.62743000
7.06003518,3.62926100
7.06670188,3.63124500
7.07336858,3.62895600
7.08003528,3.63399100
7.08670198,3.63063500
7.09336868,3.62926100
7.10003538,3.63094000
7.10670208,3.62880300
7.11336878,3.63322900
7.12003548,3.62956600
7.12670218,3.63063500
7.13336888,3.63094000
7.14003558,3.62956600
7.14670228,3.63460200
7.15336898,3.63109200
7.16003568,3.63048200
7.16670238,3.63338100
7.17336908,3.62926100
7.18003578,3.63078700
7.18670248,3.63155000
7.19336918,3.63155000
7.20003588,3.62941400
7.20670258,3.63155000
7.21336928,3.63231300
7.22003598,3.63002400
7.22670268,3.63399100
7.23336938,3.62941400
7.24003608,3.63124500
7.24670278,3.63185500
7.25336948,3.62971900
7.26003618,3.63139700
7.26670288,3.62895600
7.27336958,3.63002400
7.28003628,3.62987200
7.28670298,3.63109200
7.29336968,3.63200800
7.30003638,3.63124500
7.30670308,3.63155000
7.31336978,3.62926100
7.32003648,3.63094000
7.32670318,3.63322900
7.33336988,3.62880300
7.34003658,3.63246600
7.34670328,3.62575100
7.35336998,3.63139700
7.36003668,3.63139700
7.36670338,3.63109200
7.37337008,3.63353400
7.38003678,3.62376800
7.38670348,3.63231300
7.39337018,3.62971900
7.40003688,3.62926100
7.40670358,3.63704300
7.41337028,3.62361500
7.42003698,3.63078700
7.42670368,3.63078700
7.43337038,3.62758300
7.44003708,3.63231300
7.44670378,3.63017700
7.45337048,3.62987200
7.46003718,3.62971900
7.46670388,3.63200800
7.47337058,3.63063500
7.48003728,3.63109200
7.48670398,3.63109200
7.49337068,3.62941400
7.50003738,3.63124500
7.50670408,3.63078700
7.51337078,3.63155000
7.52003748,3.63048200
7.52670418,3.63231300
7.53337088,3.63246600
7.54003758,3.62712500
7.54670428,3.63231300
7.55337098,3.62865100
7.56003768,3.63277100
7.56670438,3.63383900
7.57337108,3.62636200
7.58003777,3.63200800
7.58670447,3.62987200
7.59337117,3.63078700
7.60003787,3.63017700
7.60670457,3.62956600
7.61337127,3.63017700
7.62003797,3.62880300
7.62670467,3.63368600
7.63337137,3.62865100
7.64003807,3.63078700
7.64670477,3.63383900
7.65337147,3.62254700
7.66003817,3.63216000
7.66670487,3.63185500
7.67337157,3.62575100
7.68003827,3.62880300
7.68670497,3.62590400
7.69337167,3.63338100
7.70003837,3.63155000
7.70670507,3.63124500
7.71337177,3.63078700
7.72003847,3.62697200
7.72670517,3.63475400
7.73337187,3.62743000
7.74003857,3.63017700
7.74670527,3.63231300
7.75337197,3.62559900
7.76003867,3.63216000
7.76670537,3.63109200
7.77337207,3.63155000
7.78003877,3.63124500
7.78670547,3.62880300
7.79337217,3.63094000
7.80003887,3.62743000
7.80670557,3.63322900
7.81337227,3.62743000
7.82003897,3.62758300
7.82670567,3.63444900
7.83337237,3.62865100
7.84003907,3.63246600
7.84670577,3.63155000
7.85337247,3.62834500
7.86003917,3.63246600
7.86670587,3.62849800
7.87337257,3.62987200
7.88003927,3.63139700
7.88670597,3.59660600
7.89337267,3.61796900
7.90003937,3.57478600
7.90670607,3.59935300
7.91337277,3.61140800
7.92003947,3.40250900
7.92670617,3.54640300
7.93337287,3.53480600
7.94003957,3.44828600
7.94670627,3.53267000
7.95337297,3.21894000
7.96003967,3.52687100
7.96670637,3.57966900
7.97337307,3.51664800
7.98003977,3.59340200
7.98670647,3.45255900
7.99337317,3.59111300
8.00003987,3.56730900
8.00670657,3.57692200
8.01337327,3.61201800
8.02003997,3.48521400
8.02670667,3.59294400
8.03337337,3.52427700
8.04004007,3.60042100
8.04670677,3.61674900
8.05337347,3.56410400
8.06004017,3.61552800
8.06670687,3.55479600
8.07337357,3.62208900
8.08004027,3.61720600
8.08670697,3.59767400
8.09337367,3.62712500
8.10004037,3.57432800
8.10670707,3.62437800
8.11337377,3.61323900
8.12004047,3.60896600
8.12670717,3.63017700
8.13337387,3.60087900
8.14004057,3.62697200
8.14670727,3.61735900
8.15337397,3.63124500
8.16004067,3.62605700
8.16670737,3.62300500
8.17337407,3.63078700
8.18004077,3.62056300
8.18670746,3.63124500
8.19337416,3.62514100
8.20004086,3.62270000
8.20670756,3.63429700
8.21337426,3.61674900
8.22004096,3.63048200
8.22670766,3.62483600
8.23337436,3.62880300
8.24004106,3.62743000
8.24670776,3.62636200
8.25337446,3.62605700
8.26004116,3.62651400
8.26670786,3.62987200
8.27337456,3.62712500
8.28004126,3.62559900
8.28670796,3.63048200
8.29337466,3.62392000
8.30004136,3.62727700
8.30670806,3.62132600
8.31337476,3.62758300
8.32004146,3.62804000
8.32670816,3.62605700
8.33337486,3.62865100
8.34004156,3.62559900
8.34670826,3.62834500
8.35337496,3.62651400
8.36004166,3.62651400
8.36670836,3.62895600
8.37337506,3.62636200
8.38004176,3.62865100
8.38670846,3.62498900
8.39337516,3.62743000
8.40004186,3.62895600
8.40670856,3.62804000
8.41337526,3.62849800
8.42004196,3.62437800
8.42670866,3.63109200
8.43337536,3.63155000
8.44004206,3.62804000
8.44670876,3.62926100
8.45337546,3.62926100
8.46004216,3.63185500
8.46670886,3.63124500
8.47337556,3.62483600
8.48004226,3.62895600
8.48670896,3.62865100
8.49337566,3.62849800
8.50004236,3.62727700
8.50670906,3.63216000
8.51337576,3.62956600
8.52004246,3.62651400
8.52670916,3.62834500
8.53337586,3.62727700
8.54004256,3.62971900
8.54670926,3.63185500
8.55337596,3.62468300
8.56004266,3.63109200
8.56670936,3.63109200
8.57337606,3.62804000
8.58004276,3.62834500
8.58670946,3.62651400
8.59337616,3.62880300
8.60004286,3.62834500
8.60670956,3.62987200
8.61337626,3.62987200
8.62004296,3.62926100
8.62670966,3.63216000
8.63337636,3.62880300
8.64004306,3.62956600
8.64670976,3.63139700
8.65337646,3.62819300
8.66004316,3.62926100
8.66670986,3.62987200
8.67337656,3.62895600
8.68004326,3.62849800
8.68670996,3.63185500
8.69337666,3.62834500
8.70004336,3.62819300
8.70671006,3.63231300
8.71337676,3.62819300
8.72004346,3.62971900
8.72671016,3.62819300
8.73337686,3.62849800
8.74004356,3.62636200
8.74671026,3.62880300
8.75337696,3.63094000
8.76004366,3.62804000
8.76671036,3.63094000
8.77337706,3.62956600
8.78004376,3.62834500
8.78671046,3.63002400
8.79337715,3.62834500
8.80004385,3.62895600
8.80671055,3.62987200
8.81337725,3.62743000
8.82004395,3.62834500
8.82671065,3.62987200
8.83337735,3.63002400
8.84004405,3.63109200
8.84671075,3.63078700
8.85337745,3.62895600
8.86004415,3.62743000
8.86671085,3.62971900
8.87337755,3.62834500
8.88004425,3.62865100
8.88671095,3.62926100
8.89337765,3.62880300
8.90004435,3.62559900
8.90671105,3.63185500
8.91337775,3.62620900
8.92004445,3.62590400
8.92671115,3.63109200
8.93337785,3.62422600
8.94004455,3.62895600
8.94671125,3.62605700
8.95337795,3.62895600
8.96004465,3.62773500
8.96671135,3.62559900
8.97337805,3.62819300
8.98004475,3.62697200
8.98671145,3.63200800
8.99337815,3.62483600
9.00004485,3.62697200
9.00671155,3.62849800
9.01337825,3.62437800
9.02004495,3.62987200
9.02671165,3.62605700
9.03337835,3.62758300
9.04004505,3.63048200
9.04671175,3.62804000
9.05337845,3.62804000
9.06004515,3.62941400
9.06671185,3.62895600
9.07337855,3.62727700
9.08004525,3.62865100
9.08671195,3.63139700
9.09337865,3.62773500
9.10004535,3.62880300
9.10671205,3.63017700
9.11337875,3.62956600
9.12004545,3.62849800
9.12671215,3.63185500
9.13337885,3.62926100
9.14004555,3.62819300
9.14671225,3.63078700
9.15337895,3.62926100
9.16004565,3.62941400
9.16671235,3.63155000
9.17337905,3.63048200
9.18004575,3.63078700
9.18671245,3.63063500
9.19337915,3.62239500
9.20004585,3.62697200
9.20671255,3.61919000
9.21337925,3.62819300
9.22004595,3.62590400
9.22671265,3.61079700
9.23337935,3.63338100
9.24004605,3.58729800
9.24671275,3.62392000
9.25337945,3.62239500
9.26004615,3.59309700
9.26671285,3.62575100
9.27337955,3.57295400
9.28004625,3.62071600
9.28671295,3.62208900
9.29337965,3.59187600
9.30004635,3.63185500
9.30671305,3.58851900
9.31337975,3.62559900
9.32004645,3.62315800
9.32671315,3.61873200
9.33337985,3.62849800
9.34004655,3.61201800
9.34671325,3.62819300
9.35337995,3.61674900
9.36004665,3.62514100
9.36671335,3.62971900
9.37338005,3.61827400
9.38004675,3.62605700
9.38671345,3.62025800
9.39338015,3.62865100
9.40004684,3.62697200
9.40671354,3.62529400
9.41338024,3.62895600
9.42004694,3.62468300
9.42671364,3.63200800
9.43338034,3.62453100
9.44004704,3.62865100
9.44671374,3.63094000
9.45338044,3.62834500
9.46004714,3.62987200
9.46671384,3.62682000
9.47338054,3.62941400
9.48004724,3.62865100
9.48671394,3.62819300
9.49338064,3.62895600
9.50004734,3.62575100
9.50671404,3.63078700
9.51338074,3.62575100
9.52004744,3.62605700
9.52671414,3.63109200
9.53338084,3.62331000
9.54004754,3.62941400
9.54671424,3.62636200
9.55338094,3.62743000
9.56004764,3.62865100
9.56671434,3.62636200
9.57338104,3.63017700
9.58004774,3.62651400
9.58671444,3.62987200
9.59338114,3.62697200
9.60004784,3.62468300
9.60671454,3.63155000
9.61338124,3.62132600
9.62004794,3.62498900
9.62671464,3.62651400
9.63338134,3.62758300
9.64004804,3.62971900
9.64671474,3.62636200
9.65338144,3.62804000
9.66004814,3.62758300
9.66671484,3.62971900
9.67338154,3.63002400
9.68004824,3.62590400
9.68671494,3.63078700
9.69338164,3.62590400
9.70004834,3.62743000
9.70671504,3.63124500
9.71338174,3.62239500
9.72004844,3.62605700
9.72671514,3.62971900
9.73338184,3.62651400
9.74004854,3.62941400
9.74671524,3.62590400
9.75338194,3.62941400
9.76004864,3.62849800
9.76671534,3.62773500
9.77338204,3.62987200
9.78004874,3.62575100
9.78671544,3.62697200
9.79338214,3.62590400
9.80004884,3.62605700
9.80671554,3.62941400
9.81338224,3.62361500
9.82004894,3.62926100
9.82671564,3.62834500
9.83338234,3.62773500
9.84004904,3.62987200
9.84671574,3.62819300
9.85338244,3.62987200
9.86004914,3.62590400
9.86671584,3.62727700
9.87338254,3.62773500
9.88004924,3.62483600
9.88671594,3.62834500
9.89338264,3.62147900
9.90004934,3.62682000
9.90671604,3.62926100
9.91338274,3.62483600
9.92004944,3.62636200
9.92671614,3.62605700
9.93338284,3.62819300
9.94004954,3.62773500
9.94671624,3.62712500
9.95338294,3.62834500
9.96004964,3.62620900
9.96671634,3.62727700
9.97338304,3.63002400
9.98004974,3.62529400
9.98671644,3.61842700
9.99338314,3.62636200
10.00004984,3.62422600
10.00671653,3.60805100
10.01338323,3.63124500
10.02004993,3.53709500
10.02671663,3.60087900
10.03338333,3.59767400
10.04005003,3.53602700
10.04671673,3.57539600
10.05338343,3.39960900
10.06005013,3.55815300
10.06671683,3.58806100
10.07338353,3.49574300
10.08005023,3.57585400
10.08671693,3.46659800
10.09338363,3.58989200
10.10005033,3.58424600
10.10671703,3.59080800
10.11338373,3.62575100
10.12005043,3.55861100
10.12671713,3.62712500
10.13338383,3.56242600
10.14005053,3.61796900
10.14671723,3.60927200
10.15338393,3.58012600
10.16005063,3.61934300
10.16671733,3.53450100
10.17338403,3.60499900
10.18005073,3.57860000
10.18671743,3.59431700
10.19338413,3.62361500
10.20005083,3.54594600
10.20671753,3.61354400
10.21338423,3.57936300
10.22005093,3.61430700
10.22671763,3.62987200
10.23338433,3.57600600
10.24005103,3.62773500
10.24671773,3.57738000
10.25338443,3.62025800
10.26005113,3.61812200
10.26671783,3.58974000
10.27338453,3.62849800
10.28005123,3.57234400
10.28671793,3.62575100
10.29338463,3.60820300
10.30005133,3.60179400
10.30671803,3.63200800
10.31338473,3.57829500
10.32005143,3.62636200
10.32671813,3.61049200
10.33338483,3.61003400
10.34005153,3.63063500
10.34671823,3.58043100
10.35338493,3.62819300
10.36005163,3.60255700
10.36671833,3.61980000
10.37338503,3.62895600
10.38005173,3.59599600
10.38671843,3.63017700
10.39338513,3.60927200
10.40005183,3.62331000
10.40671853,3.62987200
10.41338523,3.60332000
10.42005193,3.62636200
10.42671863,3.60957700
10.43338533,3.62224200
10.44005203,3.62468300
10.44671873,3.61735900
10.45338543,3.62987200
10.46005213,3.61446000
10.46671883,3.62529400
10.47338553,3.62941400
10.48005223,3.61934300
10.48671893,3.62697200
10.49338563,3.61339100
10.50005233,3.62575100
10.50671903,3.62865100
10.51338573,3.62132600
10.52005243,3.62758300
10.52671913,3.62498900
10.53338583,3.63078700
10.54005253,3.62590400
10.54671923,3.62865100
10.55338593,3.63200800
10.56005263,3.62437800
10.56671933,3.62682000
10.57338603,3.62315800
10.58005273,3.62575100
10.58671943,3.62987200
10.59338613,3.62224200
10.60005283,3.62620900
10.60671953,3.63017700
10.61338622,3.62758300
10.62005292,3.62743000
10.62671962,3.62620900
10.63338632,3.62758300
10.64005302,3.62926100
10.64671972,3.62743000
10.65338642,3.62697200
10.66005312,3.62590400
10.66671982,3.62956600
10.67338652,3.62773500
10.68005322,3.62727700
10.68671992,3.63017700
10.69338662,3.62971900
10.70005332,3.62498900
10.70672002,3.62941400
10.71338672,3.62804000
10.72005342,3.62651400
10.72672012,3.63063500
10.73338682,3.62254700
10.74005352,3.62743000
10.74672022,3.63002400
10.75338692,3.62773500
10.76005362,3.62849800
10.76672032,3.62468300
10.77338702,3.62926100
10.78005372,3.62529400
10.78672042,3.62849800
10.79338712,3.62651400
10.80005382,3.62651400
10.80672052,3.62941400
10.81338722,3.62590400
10.82005392,3.62773500
10.82672062,3.63017700
10.83338732,3.62758300
10.84005402,3.62727700
10.84672072,3.62804000
10.85338742,3.62575100
10.86005412,3.62804000
10.86672082,3.62926100
10.87338752,3.62331000
10.88005422,3.62834500
10.88672092,3.62743000
10.89338762,3.62758300
10.90005432,3.62590400
10.90672102,3.62575100
10.91338772,3.62819300
10.92005442,3.62682000
10.92672112,3.62773500
10.93338782,3.62880300
10.94005452,3.62453100
10.94672122,3.62865100
10.95338792,3.62361500
10.96005462,3.62819300
10.96672132,3.63109200
10.97338802,3.62392000
10.98005472,3.62254700
10.98672142,3.62361500
10.99338812,3.62620900
11.00005482,3.63048200
11.00672152,3.62315800
11.01338822,3.62743000
11.02005492,3.62514100
11.02672162,3.62941400
11.03338832,3.62880300
11.04005502,3.62224200
11.04672172,3.62422600
11.05338842,3.62620900
11.06005512,3.62773500
11.06672182,3.63155000
11.07338852,3.62514100
11.08005522,3.63094000
11.08672192,3.62895600
11.09338862,3.62865100
11.10005532,3.62971900
11.10672202,3.62849800
11.11338872,3.62987200
11.12005542,3.62529400
11.12672212,3.63063500
11.13338882,3.63002400
11.14005552,3.62834500
11.14672222,3.63139700
11.15338892,3.62682000
11.16005562,3.62956600
11.16672232,3.63261800
11.17338902,3.62804000
11.18005572,3.62865100
11.18672242,3.62926100
11.19338912,3.63048200
11.20005582,3.62712500
11.20672252,3.62743000
11.21338922,3.63002400
11.22005591,3.62956600
11.22672261,3.63307600
11.23338931,3.63139700
11.24005601,3.63139700
11.24672271,3.63200800
11.25338941,3.62651400
11.26005611,3.62895600
11.26672281,3.63063500
11.27338951,3.62758300
11.28005621,3.62956600
11.28672291,3.62941400
11.29338961,3.63383900
11.30005631,3.63094000
11.30672301,3.62941400
11.31338971,3.63002400
11.32005641,3.62819300
11.32672311,3.63368600
11.33338981,3.62834500
11.34005651,3.62651400
11.34672321,3.63139700
11.35338991,3.62941400
11.36005661,3.62926100
11.36672331,3.63216000
11.37339001,3.62926100
11.38005671,3.63063500
11.38672341,3.62971900
11.39339011,3.62743000
11.40005681,3.62743000
11.40672351,3.62529400
11.41339021,3.62865100
11.42005691,3.62651400
11.42672361,3.62895600
11.43339031,3.63002400
11.44005701,3.62514100
11.44672371,3.63216000
11.45339041,3.62743000
11.46005711,3.62682000
11.46672381,3.63017700
11.47339051,3.62575100
11.48005721,3.62605700
11.48672391,3.62880300
11.49339061,3.62727700
11.50005731,3.62727700
11.50672401,3.63094000
11.51339071,3.62804000
11.52005741,3.62727700
11.52672411,3.62941400
11.53339081,3.62483600
11.54005751,3.62895600
11.54672421,3.62926100
11.55339091,3.62315800
11.56005761,3.62682000
11.56672431,3.62727700
11.57339101,3.62926100
11.58005771,3.62682000
11.58672441,3.62620900
11.59339111,3.62773500
11.60005781,3.62498900
11.60672451,3.62865100
11.61339121,3.62468300
11.62005791,3.62468300
11.62672461,3.62941400
11.63339131,3.62437800
11.64005801,3.62651400
11.64672471,3.62819300
11.65339141,3.62712500
11.66005811,3.62849800
11.66672481,3.62727700
11.67339151,3.62559900
11.68005821,3.62682000
11.68672491,3.62453100
11.69339161,3.62605700
11.70005831,3.62498900
11.70672501,3.62727700
11.71339171,3.62773500
11.72005841,3.62483600
11.72672511,3.62849800
11.73339181,3.62620900
11.74005851,3.62605700
11.74672521,3.62804000
11.75339191,3.62300500
11.76005861,3.62727700
11.76672531,3.62514100
11.77339201,3.62254700
11.78005871,3.62712500
11.78672541,3.62697200
11.79339211,3.62712500
11.80005881,3.62590400
11.80672551,3.62712500
11.81339221,3.62483600
11.82005891,3.62727700
11.82672560,3.62865100
11.83339230,3.62346300
11.84005900,3.62712500
11.84672570,3.62758300
11.85339240,3.62987200
11.86005910,3.62758300
11.86672580,3.62758300
11.87339250,3.62682000
11.88005920,3.62514100
11.88672590,3.62895600
11.89339260,3.62529400
11.90005930,3.62727700
11.90672600,3.62941400
11.91339270,3.62270000
11.92005940,3.62743000
11.92672610,3.63017700
11.93339280,3.62498900
11.94005950,3.62682000
11.94672620,3.62498900
11.95339290,3.62819300
11.96005960,3.62895600
11.96672630,3.62498900
11.97339300,3.62941400
11.98005970,3.62422600
11.98672640,3.62956600
11.99339310,3.62651400
12.00005980,3.62315800
12.00672650,3.63017700
12.01339320,3.62117400
12.02005990,3.62651400
12.02672660,3.62682000
12.03339330,3.62346300
12.04006000,3.62880300
12.04672670,3.62315800
12.05339340,3.62651400
12.06006010,3.62498900
12.06672680,3.62620900
12.07339350,3.62987200
12.08006020,3.62178400
12.08672690,3.62727700
12.09339360,3.62361500
12.10006030,3.62682000
12.10672700,3.62971900
12.11339370,3.62361500
12.12006040,3.62727700
12.12672710,3.62498900
12.13339380,3.62559900
12.14006050,3.62697200
12.14672720,3.62514100
12.15339390,3.62727700
12.16006060,3.62315800
12.16672730,3.62590400
12.17339400,3.62743000
12.18006070,3.62758300
12.18672740,3.62712500
12.19339410,3.62453100
12.20006080,3.62575100
12.20672750,3.63048200
12.21339420,3.62346300
12.22006090,3.62605700
12.22672760,3.62819300
12.23339430,3.62361500
12.24006100,3.62773500
12.24672770,3.62804000
12.25339440,3.62773500
12.26006110,3.62697200
12.26672780,3.62498900
12.27339450,3.62849800
12.28006120,3.62437800
12.28672790,3.62712500
12.29339460,3.62743000
12.30006130,3.62331000
12.30672800,3.63185500
12.31339470,3.62468300
12.32006140,3.62743000
12.32672810,3.62834500
12.33339480,3.62361500
12.34006150,3.62941400
12.34672820,3.62636200
12.35339490,3.62559900
12.36006160,3.62620900
12.36672830,3.62453100
12.37339500,3.62926100
12.38006170,3.62590400
12.38672840,3.62926100
12.39339510,3.63048200
12.40006180,3.62559900
12.40672850,3.63048200
12.41339520,3.62346300
12.42006190,3.62712500
12.42672860,3.62895600
12.43339529,3.62010600
12.44006199,3.62636200
12.44672869,3.62743000
12.45339539,3.62712500
12.46006209,3.62880300
12.46672879,3.62773500
12.47339549,3.62743000
12.48006219,3.62697200
12.48672889,3.62804000
12.49339559,3.62651400
12.50006229,3.62239500
12.50672899,3.62743000
12.51339569,3.62636200
12.52006239,3.62529400
12.52672909,3.62880300
12.53339579,3.62819300
12.54006249,3.62834500
12.54672919,3.62849800
12.55339589,3.62712500
12.56006259,3.62559900
12.56672929,3.62880300
12.57339599,3.62468300
12.58006269,3.62270000
12.58672939,3.62758300
12.59339609,3.62224200
12.60006279,3.62651400
12.60672949,3.62895600
12.61339619,3.62559900
12.62006289,3.62819300
12.62672959,3.61827400
12.63339629,3.61842700
12.64006299,3.62529400
12.64672969,3.62620900
12.65339639,3.62620900
12.66006309,3.62376800
12.66672979,3.62758300
12.67339649,3.62819300
12.68006319,3.62727700
12.68672989,3.62956600
12.69339659,3.62743000
12.70006329,3.62453100
12.70672999,3.62926100
12.71339669,3.62514100
12.72006339,3.62392000
12.72673009,3.62941400
12.73339679,3.62376800
12.74006349,3.62804000
12.74673019,3.62895600
12.75339689,3.62758300
12.76006359,3.62880300
12.76673029,3.62651400
12.77339699,3.62804000
12.78006369,3.62468300
12.78673039,3.62727700
12.79339709,3.62834500
12.80006379,3.62331000
12.80673049,3.62926100
12.81339719,3.62514100
12.82006389,3.62865100
12.82673059,3.63048200
12.83339729,3.62422600
12.84006399,3.62819300
12.84673069,3.62682000
12.85339739,3.62712500
12.86006409,3.62636200
12.86673079,3.62620900
12.87339749,3.62941400
12.88006419,3.62498900
12.88673089,3.62849800
12.89339759,3.62575100
12.90006429,3.62682000
12.90673099,3.62956600
12.91339769,3.62529400
12.92006439,3.62849800
12.92673109,3.62697200
12.93339779,3.62651400
12.94006449,3.62727700
12.94673119,3.62559900
12.95339789,3.62971900
12.96006459,3.62636200
12.96673129,3.62865100
12.97339799,3.62636200
12.98006469,3.62529400
12.98673139,3.63063500
12.99339809,3.62620900
13.00006479,3.62819300
13.00673149,3.62834500
13.01339819,3.62392000
13.02006489,3.62804000
13.02673159,3.62514100
13.03339829,3.62804000
13.04006498,3.62605700
13.04673168,3.62804000
13.05339838,3.62880300
13.06006508,3.62636200
13.06673178,3.62880300
13.07339848,3.62605700
13.08006518,3.62453100
13.08673188,3.62987200
13.09339858,3.62529400
13.10006528,3.62773500
13.10673198,3.62941400
13.11339868,3.62453100
13.12006538,3.62849800
13.12673208,3.62620900
13.13339878,3.62697200
13.14006548,3.62697200
13.14673218,3.62514100
13.15339888,3.62712500
13.16006558,3.62361500
13.16673228,3.62651400
13.17339898,3.62636200
13.18006568,3.62483600
13.18673238,3.62773500
13.19339908,3.62102100
13.20006578,3.62636200
13.20673248,3.62849800
13.21339918,3.62239500
13.22006588,3.62453100
13.22673258,3.62453100
13.23339928,3.62468300
13.24006598,3.62498900
13.24673268,3.62346300
13.25339938,3.62620900
13.26006608,3.62422600
13.26673278,3.62605700
13.27339948,3.62422600
13.28006618,3.62392000
13.28673288,3.62727700
13.29339958,3.62468300
13.30006628,3.62254700
13.30673298,3.62529400
13.31339968,3.62376800
13.32006638,3.62178400
13.32673308,3.62376800
13.33339978,3.61644300
13.34006648,3.61842700
13.34673318,3.62239500
13.35339988,3.62315800
13.36006658,3.61522300
13.36673328,3.62208900
13.37339998,3.62453100
13.38006668,3.62193700
13.38673338,3.62682000
13.39340008,3.61751200
13.40006678,3.62315800
13.40673348,3.62514100
13.41340018,3.61995300
13.42006688,3.62422600
13.42673358,3.61995300
13.43340028,3.62239500
13.44006698,3.62483600
13.44673368,3.62422600
13.45340038,3.62712500
13.46006708,3.62025800
13.46673378,3.62498900
13.47340048,3.62361500
13.48006718,3.62392000
13.48673388,3.62559900
13.49340058,3.62117400
13.50006728,3.62437800
13.50673398,3.62636200
13.51340068,3.62514100
13.52006738,3.62468300
13.52673408,3.62529400
13.53340078,3.62514100
13.54006748,3.62376800
13.54673418,3.62437800
13.55340088,3.62468300
13.56006758,3.62331000
13.56673428,3.62270000
13.57340098,3.62605700
13.58006768,3.62102100
13.58673438,3.62620900
13.59340108,3.62239500
13.60006778,3.62224200
13.60673448,3.62636200
13.61340118,3.62010600
13.62006788,3.62193700
13.62673458,3.62239500
13.63340128,3.62468300
13.64006798,3.62636200
13.64673467,3.62315800
