Time,Channel A
(s),(V)

0.00000000,4.84984900
0.00666670,4.84939100
0.01333340,4.84939100
0.02000010,4.84923800
0.02666680,4.84984900
0.03333350,4.84954400
0.04000020,4.85061200
0.04666690,4.84954400
0.05333360,4.85000100
0.06000030,4.84847500
0.06666700,4.84984900
0.07333370,4.84923800
0.08000040,4.85030700
0.08666710,4.84969600
0.09333380,4.84969600
0.10000050,4.85076400
0.10666720,4.85045900
0.11333390,4.84908600
0.12000060,4.85000100
0.12666730,4.84969600
0.13333400,4.85076400
0.14000070,4.84984900
0.14666740,4.84984900
0.15333410,4.84984900
0.16000080,4.85091700
0.16666750,4.85000100
0.17333420,4.84954400
0.18000090,4.85045900
0.18666760,4.85091700
0.19333430,4.84984900
0.20000100,4.84954400
0.20666770,4.84969600
0.21333440,4.84908600
0.22000110,4.84969600
0.22666780,4.84878100
0.23333450,4.84969600
0.24000120,4.84908600
0.24666790,4.84969600
0.25333460,4.84984900
0.26000130,4.84954400
0.26666800,4.84939100
0.27333470,4.84969600
0.28000140,4.85045900
0.28666810,4.84939100
0.29333480,4.84923800
0.30000150,4.84908600
0.30666819,4.84939100
0.31333489,4.85030700
0.32000159,4.84984900
0.32666829,4.84923800
0.33333499,4.85030700
0.34000169,4.84984900
0.34666839,4.84954400
0.35333509,4.84969600
0.36000179,4.84984900
0.36666849,4.84984900
0.37333519,4.85030700
0.38000189,4.84954400
0.38666859,4.84984900
0.39333529,4.85000100
0.40000199,4.84908600
0.40666869,4.84984900
0.41333539,4.84908600
0.42000209,4.84923800
0.42666879,4.85030700
0.43333549,4.85030700
0.44000219,4.84984900
0.44666889,4.85061200
0.45333559,4.85045900
0.46000229,4.84954400
0.46666899,4.85030700
0.47333569,4.84984900
0.48000239,4.85030700
0.48666909,4.85000100
0.49333579,4.84954400
0.50000249,4.84969600
0.50666919,4.85030700
0.51333589,4.84954400
0.52000259,4.85030700
0.52666929,4.85061200
0.53333599,4.85030700
0.54000269,4.84862800
0.54666939,4.85000100
0.55333609,4.84939100
0.56000279,4.84984900
0.56666949,4.85030700
0.57333619,4.84939100
0.58000289,4.84969600
0.58666959,4.84939100
0.59333629,4.85000100
0.60000299,4.84984900
0.60666969,4.85000100
0.61333639,4.84939100
0.62000309,4.84923800
0.62666979,4.84878100
0.63333649,4.84984900
0.64000319,4.85091700
0.64666989,4.84984900
0.65333659,4.85045900
0.66000329,4.84969600
0.66666999,4.85030700
0.67333669,4.84984900
0.68000339,4.84954400
0.68667009,4.84984900
0.69333679,4.85030700
0.70000349,4.84984900
0.70667019,4.85000100
0.71333689,4.84923800
0.72000359,4.85030700
0.72667029,4.84969600
0.73333699,4.84908600
0.74000369,4.84939100
0.74667039,4.84923800
0.75333709,4.84939100
0.76000379,4.85000100
0.76667049,4.85030700
0.77333719,4.84984900
0.78000389,4.84862800
0.78667059,4.85061200
0.79333729,4.85061200
0.80000399,4.85045900
0.80667069,4.84878100
0.81333739,4.84923800
0.82000409,4.85030700
0.82667079,4.84954400
0.83333749,4.85030700
0.84000419,4.84908600
0.84667089,4.84984900
0.85333759,4.84984900
0.86000429,4.84954400
0.86667099,4.84969600
0.87333769,4.84984900
0.88000439,4.85045900
0.88667109,4.84984900
0.89333779,4.84969600
0.90000449,4.84969600
0.90667119,4.84969600
0.91333788,4.84847500
0.92000458,4.84984900
0.92667128,4.84969600
0.93333798,4.85000100
0.94000468,4.84923800
0.94667138,4.85000100
0.95333808,4.84939100
0.96000478,4.84923800
0.96667148,4.84939100
0.97333818,4.85000100
0.98000488,4.85000100
0.98667158,4.84984900
0.99333828,4.85000100
1.00000498,4.84908600
1.00667168,4.85061200
1.01333838,4.84954400
1.02000508,4.84969600
1.02667178,4.84969600
1.03333848,4.84954400
1.04000518,4.85030700
1.04667188,4.85000100
1.05333858,4.84939100
1.06000528,4.84908600
1.06667198,4.85045900
1.07333868,4.84939100
1.08000538,4.84984900
1.08667208,4.84984900
1.09333878,4.85061200
1.10000548,4.84984900
1.10667218,4.84939100
1.11333888,4.84939100
1.12000558,4.84847500
1.12667228,4.85030700
1.13333898,4.85076400
1.14000568,4.84969600
1.14667238,4.84939100
1.15333908,4.84969600
1.16000578,4.84939100
1.16667248,4.85000100
1.17333918,4.84969600
1.18000588,4.85045900
1.18667258,4.84939100
1.19333928,4.85030700
1.20000598,4.85030700
1.20667268,4.84923800
1.21333938,4.85030700
1.22000608,4.85045900
1.22667278,4.84984900
1.23333948,4.85091700
1.24000618,4.84969600
1.24667288,4.84954400
1.25333958,4.84969600
1.26000628,4.84969600
1.26667298,4.84969600
1.27333968,4.84939100
1.28000638,4.84923800
1.28667308,4.84969600
1.29333978,4.84939100
1.30000648,4.84878100
1.30667318,4.84954400
1.31333988,4.85076400
1.32000658,4.85000100
1.32667328,4.84939100
1.33333998,4.84984900
1.34000668,4.85000100
1.34667338,4.85030700
1.35334008,4.85000100
1.36000678,4.84939100
1.36667348,4.84923800
1.37334018,4.85030700
1.38000688,4.85030700
1.38667358,4.84969600
1.39334028,4.84969600
1.40000698,4.85045900
1.40667368,4.85061200
1.41334038,4.85061200
1.42000708,4.84939100
1.42667378,4.84939100
1.43334048,4.84954400
1.44000718,4.84984900
1.44667388,4.84954400
1.45334058,4.84984900
1.46000728,4.85000100
1.46667398,4.84832300
1.47334068,4.85045900
1.48000738,4.84954400
1.48667408,4.85000100
1.49334078,4.85076400
1.50000748,4.84984900
1.50667418,4.84984900
1.51334088,4.84939100
1.52000757,4.84908600
1.52667427,4.84862800
1.53334097,4.85061200
1.54000767,4.85045900
1.54667437,4.84969600
1.55334107,4.84908600
1.56000777,4.85045900
1.56667447,4.84908600
1.57334117,4.85000100
1.58000787,4.85091700
1.58667457,4.84939100
1.59334127,4.85000100
1.60000797,4.84923800
1.60667467,4.85045900
1.61334137,4.84908600
1.62000807,4.84862800
1.62667477,4.84969600
1.63334147,4.84862800
1.64000817,4.85000100
1.64667487,4.85000100
1.65334157,4.84984900
1.66000827,4.84969600
1.66667497,4.84954400
1.67334167,4.85061200
1.68000837,4.84984900
1.68667507,4.84939100
1.69334177,4.84939100
1.70000847,4.84832300
1.70667517,4.85000100
1.71334187,4.85091700
1.72000857,4.84969600
1.72667527,4.84939100
1.73334197,4.85061200
1.74000867,4.84984900
1.74667537,4.84969600
1.75334207,4.85061200
1.76000877,4.85030700
1.76667547,4.84984900
1.77334217,4.85000100
1.78000887,4.84969600
1.78667557,4.85045900
1.79334227,4.84939100
1.80000897,4.85030700
1.80667567,4.85076400
1.81334237,4.84923800
1.82000907,4.84969600
1.82667577,4.84984900
1.83334247,4.84923800
1.84000917,4.85000100
1.84667587,4.84908600
1.85334257,4.84908600
1.86000927,4.85030700
1.86667597,4.84954400
1.87334267,4.84954400
1.88000937,4.84969600
1.88667607,4.84984900
1.89334277,4.85030700
1.90000947,4.85030700
1.90667617,4.84847500
1.91334287,4.84954400
1.92000957,4.84908600
1.92667627,4.84878100
1.93334297,4.84954400
1.94000967,4.85061200
1.94667637,4.84954400
1.95334307,4.84923800
1.96000977,4.84939100
1.96667647,4.85045900
1.97334317,4.85000100
1.98000987,4.84984900
1.98667657,4.84862800
1.99334327,4.85000100
2.00000997,4.85061200
2.00667667,4.84862800
2.01334337,4.84954400
2.02001007,4.85045900
2.02667677,4.85030700
2.03334347,4.84847500
2.04001017,4.85000100
2.04667687,4.84908600
2.05334357,4.84984900
2.06001027,4.84954400
2.06667697,4.84984900
2.07334367,4.84923800
2.08001037,4.84984900
2.08667707,4.85045900
2.09334377,4.85030700
2.10001047,4.84969600
2.10667717,4.85045900
2.11334387,4.84969600
2.12001057,4.84939100
2.12667726,4.84984900
2.13334396,4.85106900
2.14001066,4.84984900
2.14667736,4.84954400
2.15334406,4.85106900
2.16001076,4.85000100
2.16667746,4.84939100
2.17334416,4.84923800
2.18001086,4.84984900
2.18667756,4.85091700
2.19334426,4.85030700
2.20001096,4.84908600
2.20667766,4.84939100
2.21334436,4.84969600
2.22001106,4.84969600
2.22667776,4.84908600
2.23334446,4.84984900
2.24001116,4.85000100
2.24667786,4.84923800
2.25334456,4.85091700
2.26001126,4.84954400
2.26667796,4.85076400
2.27334466,4.84984900
2.28001136,4.85030700
2.28667806,4.85045900
2.29334476,4.84954400
2.30001146,4.84969600
2.30667816,4.84939100
2.31334486,4.85000100
2.32001156,4.85030700
2.32667826,4.84954400
2.33334496,4.85076400
2.34001166,4.84923800
2.34667836,4.85076400
2.35334506,4.84908600
2.36001176,4.85000100
2.36667846,4.84954400
2.37334516,4.84954400
2.38001186,4.84984900
2.38667856,4.84969600
2.39334526,4.85000100
2.40001196,4.85030700
2.40667866,4.85091700
2.41334536,4.85076400
2.42001206,4.85076400
2.42667876,4.84969600
2.43334546,4.85000100
2.44001216,4.84954400
2.44667886,4.85030700
2.45334556,4.84969600
2.46001226,4.84954400
2.46667896,4.84862800
2.47334566,4.85076400
2.48001236,4.84847500
2.48667906,4.84984900
2.49334576,4.84984900
2.50001246,4.84969600
2.50667916,4.84939100
2.51334586,4.85045900
2.52001256,4.84969600
2.52667926,4.84908600
2.53334596,4.85076400
2.54001266,4.84954400
2.54667936,4.84984900
2.55334606,4.85045900
2.56001276,4.84954400
2.56667946,4.85030700
2.57334616,4.84954400
2.58001286,4.85030700
2.58667956,4.84878100
2.59334626,4.84923800
2.60001296,4.84939100
2.60667966,4.85000100
2.61334636,4.84969600
2.62001306,4.84984900
2.62667976,4.85000100
2.63334646,4.84984900
2.64001316,4.85000100
2.64667986,4.84878100
2.65334656,4.84969600
2.66001326,4.84939100
2.66667996,4.84862800
2.67334666,4.84939100
2.68001336,4.84969600
2.68668006,4.84939100
2.69334676,4.84969600
2.70001346,4.84969600
2.70668016,4.84878100
2.71334686,4.85045900
2.72001356,4.84862800
2.72668026,4.85030700
2.73334695,4.85030700
2.74001365,4.84969600
2.74668035,4.84954400
2.75334705,4.84969600
2.76001375,4.85045900
2.76668045,4.84954400
2.77334715,4.84939100
2.78001385,4.84984900
2.78668055,4.85000100
2.79334725,4.85030700
2.80001395,4.84939100
2.80668065,4.84939100
2.81334735,4.84954400
2.82001405,4.85045900
2.82668075,4.84984900
2.83334745,4.84954400
2.84001415,4.84908600
2.84668085,4.84878100
2.85334755,4.85030700
2.86001425,4.84969600
2.86668095,4.85030700
2.87334765,4.84954400
2.88001435,4.85030700
2.88668105,4.85076400
2.89334775,4.84939100
2.90001445,4.85045900
2.90668115,4.84923800
2.91334785,4.84954400
2.92001455,4.85061200
2.92668125,4.84954400
2.93334795,4.84954400
2.94001465,4.84939100
2.94668135,4.85000100
2.95334805,4.84969600
2.96001475,4.84939100
2.96668145,4.84969600
2.97334815,4.85061200
2.98001485,4.85076400
2.98668155,4.84862800
2.99334825,4.84908600
3.00001495,4.84908600
3.00668165,4.85000100
3.01334835,4.84984900
3.02001505,4.85045900
3.02668175,4.85000100
3.03334845,4.85000100
3.04001515,4.84923800
3.04668185,4.85045900
3.05334855,4.85000100
3.06001525,4.84954400
3.06668195,4.84923800
3.07334865,4.85000100
3.08001535,4.84969600
3.08668205,4.84984900
3.09334875,4.84923800
3.10001545,4.85061200
3.10668215,4.84939100
3.11334885,4.84954400
3.12001555,4.84984900
3.12668225,4.84939100
3.13334895,4.84984900
3.14001565,4.84954400
3.14668235,4.85000100
3.15334905,4.84939100
3.16001575,4.85030700
3.16668245,4.85030700
3.17334915,4.84923800
3.18001585,4.85045900
3.18668255,4.84984900
3.19334925,4.84969600
3.20001595,4.85061200
3.20668265,4.84939100
3.21334935,4.85000100
3.22001605,4.84817000
3.22668275,4.85061200
3.23334945,4.84908600
3.24001615,4.84939100
3.24668285,4.84908600
3.25334955,4.85030700
3.26001625,4.85045900
3.26668295,4.85061200
3.27334965,4.84969600
3.28001635,4.84939100
3.28668305,4.85000100
3.29334975,4.84954400
3.30001645,4.84984900
3.30668315,4.84939100
3.31334985,4.85000100
3.32001655,4.84954400
3.32668325,4.85061200
3.33334995,4.84954400
3.34001664,4.84939100
3.34668334,4.84969600
3.35335004,4.85045900
3.36001674,4.84862800
3.36668344,4.84878100
3.37335014,4.85061200
3.38001684,4.84939100
3.38668354,4.85045900
3.39335024,4.84969600
3.40001694,4.84954400
3.40668364,4.85000100
3.41335034,4.85045900
3.42001704,4.84939100
3.42668374,4.84969600
3.43335044,4.84954400
3.44001714,4.85045900
3.44668384,4.84984900
3.45335054,4.84939100
3.46001724,4.85000100
3.46668394,4.84984900
3.47335064,4.85045900
3.48001734,4.85030700
3.48668404,4.85091700
3.49335074,4.85000100
3.50001744,4.84969600
3.50668414,4.85030700
3.51335084,4.84969600
3.52001754,4.85061200
3.52668424,4.84984900
3.53335094,4.84939100
3.54001764,4.85045900
3.54668434,4.85061200
3.55335104,4.84969600
3.56001774,4.85000100
3.56668444,4.84969600
3.57335114,4.84969600
3.58001784,4.85030700
3.58668454,4.84954400
3.59335124,4.84969600
3.60001794,4.85168000
3.60668464,4.84954400
3.61335134,4.85000100
3.62001804,4.85091700
3.62668474,4.85045900
3.63335144,4.85045900
3.64001814,4.84969600
3.64668484,4.85061200
3.65335154,4.85061200
3.66001824,4.84939100
3.66668494,4.85091700
3.67335164,4.85030700
3.68001834,4.85076400
3.68668504,4.85091700
3.69335174,4.84939100
3.70001844,4.84969600
3.70668514,4.85045900
3.71335184,4.84969600
3.72001854,4.84954400
3.72668524,4.84908600
3.73335194,4.84908600
3.74001864,4.85076400
3.74668534,4.85061200
3.75335204,4.85061200
3.76001874,4.85061200
3.76668544,4.85045900
3.77335214,4.84969600
3.78001884,4.84969600
3.78668554,4.84908600
3.79335224,4.84939100
3.80001894,4.84984900
3.80668564,4.84969600
3.81335234,4.84954400
3.82001904,4.85061200
3.82668574,4.85030700
3.83335244,4.84954400
3.84001914,4.84939100
3.84668584,4.85076400
3.85335254,4.84939100
3.86001924,4.84908600
3.86668594,4.84954400
3.87335264,4.85045900
3.88001934,4.84969600
3.88668604,4.85030700
3.89335274,4.84939100
3.90001944,4.84954400
3.90668614,4.85091700
3.91335284,4.85000100
3.92001954,4.85045900
3.92668624,4.84984900
3.93335294,4.84984900
3.94001964,4.85030700
3.94668633,4.85061200
3.95335303,4.84954400
3.96001973,4.85030700
3.96668643,4.85061200
3.97335313,4.85000100
3.98001983,4.85045900
3.98668653,4.84939100
3.99335323,4.85106900
4.00001993,4.84923800
4.00668663,4.85000100
4.01335333,4.84984900
4.02002003,4.85106900
4.02668673,4.85000100
4.03335343,4.85030700
4.04002013,4.85091700
4.04668683,4.84878100
4.05335353,4.85061200
4.06002023,4.84954400
4.06668693,4.85061200
4.07335363,4.84939100
4.08002033,4.84954400
4.08668703,4.84984900
4.09335373,4.84984900
4.10002043,4.84969600
4.10668713,4.85000100
4.11335383,4.85000100
4.12002053,4.85045900
4.12668723,4.84984900
4.13335393,4.85122200
4.14002063,4.85061200
4.14668733,4.84969600
4.15335403,4.84969600
4.16002073,4.84939100
4.16668743,4.84954400
4.17335413,4.84969600
4.18002083,4.84939100
4.18668753,4.85061200
4.19335423,4.85000100
4.20002093,4.85000100
4.20668763,4.85000100
4.21335433,4.85000100
4.22002103,4.84984900
4.22668773,4.84954400
4.23335443,4.85061200
4.24002113,4.85106900
4.24668783,4.84984900
4.25335453,4.84969600
4.26002123,4.84954400
4.26668793,4.85076400
4.27335463,4.84923800
4.28002133,4.85076400
4.28668803,4.85000100
4.29335473,4.85045900
4.30002143,4.85106900
4.30668813,4.85030700
4.31335483,4.84969600
4.32002153,4.84939100
4.32668823,4.85030700
4.33335493,4.85000100
4.34002163,4.85030700
4.34668833,4.85000100
4.35335503,4.85045900
4.36002173,4.85122200
4.36668843,4.85030700
4.37335513,4.85030700
4.38002183,4.85091700
4.38668853,4.84939100
4.39335523,4.85000100
4.40002193,4.84984900
4.40668863,4.85030700
4.41335533,4.84969600
4.42002203,4.85061200
4.42668873,4.85091700
4.43335543,4.85061200
4.44002213,4.85000100
4.44668883,4.84969600
4.45335553,4.85061200
4.46002223,4.84969600
4.46668893,4.84939100
4.47335563,4.84939100
4.48002233,4.84954400
4.48668903,4.85000100
4.49335573,4.84969600
4.50002243,4.84954400
4.50668913,4.84954400
4.51335583,4.85045900
4.52002253,4.85106900
4.52668923,4.84939100
4.53335593,4.85000100
4.54002263,4.84984900
4.54668933,4.85045900
4.55335602,4.84939100
4.56002272,4.84969600
4.56668942,4.84954400
4.57335612,4.85061200
4.58002282,4.84923800
4.58668952,4.85000100
4.59335622,4.84984900
4.60002292,4.84984900
4.60668962,4.84878100
4.61335632,4.85030700
4.62002302,4.85045900
4.62668972,4.84954400
4.63335642,4.84939100
4.64002312,4.85061200
4.64668982,4.85045900
4.65335652,4.85076400
4.66002322,4.85045900
4.66668992,4.84984900
4.67335662,4.84984900
4.68002332,4.84908600
4.68669002,4.85030700
4.69335672,4.85045900
4.70002342,4.85061200
4.70669012,4.84954400
4.71335682,4.84939100
4.72002352,4.84969600
4.72669022,4.84862800
4.73335692,4.84878100
4.74002362,4.84984900
4.74669032,4.84969600
4.75335702,4.85030700
4.76002372,4.85030700
4.76669042,4.85000100
4.77335712,4.85030700
4.78002382,4.84939100
4.78669052,4.84984900
4.79335722,4.84954400
4.80002392,4.84939100
4.80669062,4.84847500
4.81335732,4.84984900
4.82002402,4.85000100
4.82669072,4.85000100
4.83335742,4.85152700
4.84002412,4.85000100
4.84669082,4.84954400
4.85335752,4.85061200
4.86002422,4.85045900
4.86669092,4.85000100
4.87335762,4.84939100
4.88002432,4.84984900
4.88669102,4.84969600
4.89335772,4.84923800
4.90002442,4.84969600
4.90669112,4.84878100
4.91335782,4.84954400
4.92002452,4.85000100
4.92669122,4.84939100
4.93335792,4.85000100
4.94002462,4.84969600
4.94669132,4.84984900
4.95335802,4.84969600
4.96002472,4.85030700
4.96669142,4.85045900
4.97335812,4.84984900
4.98002482,4.84969600
4.98669152,4.85045900
4.99335822,4.85076400
5.00002492,4.84939100
5.00669162,4.84939100
5.01335832,4.84939100
5.02002502,4.84969600
5.02669172,4.84923800
5.03335842,4.84939100
5.04002512,4.85045900
5.04669182,4.85030700
5.05335852,4.85045900
5.06002522,4.85030700
5.06669192,4.85045900
5.07335862,4.85000100
5.08002532,4.84954400
5.08669202,4.85030700
5.09335872,4.84984900
5.10002542,4.85091700
5.10669212,4.84923800
5.11335882,4.84908600
5.12002552,4.84969600
5.12669222,4.85030700
5.13335892,4.84908600
5.14002562,4.84954400
5.14669232,4.85030700
5.15335902,4.85061200
5.16002571,4.85045900
5.16669241,4.84969600
5.17335911,4.85000100
5.18002581,4.85030700
5.18669251,4.84984900
5.19335921,4.85000100
5.20002591,4.85000100
5.20669261,4.84969600
5.21335931,4.84878100
5.22002601,4.84923800
5.22669271,4.85076400
5.23335941,4.85061200
5.24002611,4.85106900
5.24669281,4.84954400
5.25335951,4.84984900
5.26002621,4.85106900
5.26669291,4.84984900
5.27335961,4.84908600
5.28002631,4.84954400
5.28669301,4.84969600
5.29335971,4.84923800
5.30002641,4.84939100
5.30669311,4.84908600
5.31335981,4.85091700
5.32002651,4.85045900
5.32669321,4.84984900
5.33335991,4.85030700
5.34002661,4.85030700
5.34669331,4.84954400
5.35336001,4.84939100
5.36002671,4.84908600
5.36669341,4.84908600
5.37336011,4.84984900
5.38002681,4.85000100
5.38669351,4.85000100
5.39336021,4.84923800
5.40002691,4.84984900
5.40669361,4.84969600
5.41336031,4.84969600
5.42002701,4.84969600
5.42669371,4.85030700
5.43336041,4.84984900
5.44002711,4.85045900
5.44669381,4.84923800
5.45336051,4.85061200
5.46002721,4.85091700
5.46669391,4.84969600
5.47336061,4.84984900
5.48002731,4.84984900
5.48669401,4.85000100
5.49336071,4.85000100
5.50002741,4.84984900
5.50669411,4.84878100
5.51336081,4.85061200
5.52002751,4.84984900
5.52669421,4.85045900
5.53336091,4.85076400
5.54002761,4.84954400
5.54669431,4.84954400
5.55336101,4.85000100
5.56002771,4.84939100
5.56669441,4.85000100
5.57336111,4.85000100
5.58002781,4.85076400
5.58669451,4.85076400
5.59336121,4.85000100
5.60002791,4.84984900
5.60669461,4.84908600
5.61336131,4.84954400
5.62002801,4.84923800
5.62669471,4.84908600
5.63336141,4.84969600
5.64002811,4.84878100
5.64669481,4.84923800
5.65336151,4.85091700
5.66002821,4.84923800
5.66669491,4.85000100
5.67336161,4.84984900
5.68002831,4.84984900
5.68669501,4.84923800
5.69336171,4.84984900
5.70002841,4.85076400
5.70669511,4.84984900
5.71336181,4.85000100
5.72002851,4.84954400
5.72669521,4.84984900
5.73336191,4.84878100
5.74002861,4.84923800
5.74669531,4.85000100
5.75336201,4.84984900
5.76002871,4.85000100
5.76669540,4.84923800
5.77336210,4.84984900
5.78002880,4.84984900
5.78669550,4.84969600
5.79336220,4.84939100
5.80002890,4.84801800
5.80669560,4.85045900
5.81336230,4.85045900
5.82002900,4.84969600
5.82669570,4.85076400
5.83336240,4.84908600
5.84002910,4.84984900
5.84669580,4.84939100
5.85336250,4.85061200
5.86002920,4.84969600
5.86669590,4.84969600
5.87336260,4.84954400
5.88002930,4.85000100
5.88669600,4.84969600
5.89336270,4.84923800
5.90002940,4.85000100
5.90669610,4.84984900
5.91336280,4.84954400
5.92002950,4.84984900
5.92669620,4.85061200
5.93336290,4.84969600
5.94002960,4.84984900
5.94669630,4.85061200
5.95336300,4.84984900
5.96002970,4.85000100
5.96669640,4.85045900
5.97336310,4.84984900
5.98002980,4.84923800
5.98669650,4.84969600
5.99336320,4.85000100
6.00002990,4.84832300
6.00669660,4.84908600
6.01336330,4.84939100
6.02003000,4.84954400
6.02669670,4.85045900
6.03336340,4.84984900
6.04003010,4.85000100
6.04669680,4.84954400
6.05336350,4.85061200
6.06003020,4.85045900
6.06669690,4.84923800
6.07336360,4.84969600
6.08003030,4.85000100
6.08669700,4.85000100
6.09336370,4.85045900
6.10003040,4.84954400
6.10669710,4.84954400
6.11336380,4.85091700
6.12003050,4.84954400
6.12669720,4.85000100
6.13336390,4.84939100
6.14003060,4.85045900
6.14669730,4.84984900
6.15336400,4.84878100
6.16003070,4.84954400
6.16669740,4.85000100
6.17336410,4.84984900
6.18003080,4.85045900
6.18669750,4.85091700
6.19336420,4.85045900
6.20003090,4.84954400
6.20669760,4.84847500
6.21336430,4.85045900
6.22003100,4.85000100
6.22669770,4.84984900
6.23336440,4.84923800
6.24003110,4.84908600
6.24669780,4.85030700
6.25336450,4.84984900
6.26003120,4.84969600
6.26669790,4.85030700
6.27336460,4.84862800
6.28003130,4.84923800
6.28669800,4.84908600
6.29336470,4.85076400
6.30003140,4.84969600
6.30669810,4.84939100
6.31336480,4.84969600
6.32003150,4.84923800
6.32669820,4.84939100
6.33336490,4.84969600
6.34003160,4.85000100
6.34669830,4.84939100
6.35336500,4.84984900
6.36003170,4.84984900
6.36669839,4.85000100
6.37336509,4.84954400
6.38003179,4.84954400
6.38669849,4.84969600
6.39336519,4.85045900
6.40003189,4.84939100
6.40669859,4.84908600
6.41336529,4.85030700
6.42003199,4.84984900
6.42669869,4.84908600
6.43336539,4.84954400
6.44003209,4.85076400
6.44669879,4.85000100
6.45336549,4.84923800
6.46003219,4.84923800
6.46669889,4.84939100
6.47336559,4.84969600
6.48003229,4.84984900
6.48669899,4.84969600
6.49336569,4.84984900
6.50003239,4.84984900
6.50669909,4.84954400
6.51336579,4.84923800
6.52003249,4.85000100
6.52669919,4.84923800
6.53336589,4.84969600
6.54003259,4.84984900
6.54669929,4.85000100
6.55336599,4.84939100
6.56003269,4.84939100
6.56669939,4.84969600
6.57336609,4.84939100
6.58003279,4.84954400
6.58669949,4.84878100
6.59336619,4.85076400
6.60003289,4.85106900
6.60669959,4.84984900
6.61336629,4.85045900
6.62003299,4.84923800
6.62669969,4.84984900
6.63336639,4.85000100
6.64003309,4.84954400
6.64669979,4.85030700
6.65336649,4.85000100
6.66003319,4.84984900
6.66669989,4.84984900
6.67336659,4.84878100
6.68003329,4.84969600
6.68669999,4.85076400
6.69336669,4.85045900
6.70003339,4.84984900
6.70670009,4.84969600
6.71336679,4.84954400
6.72003349,4.84969600
6.72670019,4.85030700
6.73336689,4.84969600
6.74003359,4.84939100
6.74670029,4.85045900
6.75336699,4.84984900
6.76003369,4.84923800
6.76670039,4.84969600
6.77336709,4.84954400
6.78003379,4.85030700
6.78670049,4.85061200
6.79336719,4.85000100
6.80003389,4.84954400
6.80670059,4.84939100
6.81336729,4.84969600
6.82003399,4.84954400
6.82670069,4.84969600
6.83336739,4.85030700
6.84003409,4.84969600
6.84670079,4.85045900
6.85336749,4.84969600
6.86003419,4.85000100
6.86670089,4.85000100
6.87336759,4.84939100
6.88003429,4.84984900
6.88670099,4.84984900
6.89336769,4.84878100
6.90003439,4.85061200
6.90670109,4.84954400
6.91336779,4.84923800
6.92003449,4.85076400
6.92670119,4.84923800
6.93336789,4.85076400
6.94003459,4.84954400
6.94670129,4.84954400
6.95336799,4.84908600
6.96003469,4.84954400
6.96670139,4.85000100
6.97336808,4.84939100
6.98003478,4.85000100
6.98670148,4.84954400
6.99336818,4.85000100
7.00003488,4.84939100
7.00670158,4.85076400
7.01336828,4.84862800
7.02003498,4.84969600
7.02670168,4.84939100
7.03336838,4.84954400
7.04003508,4.85030700
7.04670178,4.84954400
7.05336848,4.84984900
7.06003518,4.85000100
7.06670188,4.85045900
7.07336858,4.84923800
7.08003528,4.85045900
7.08670198,4.84923800
7.09336868,4.85030700
7.10003538,4.84923800
7.10670208,4.85076400
7.11336878,4.85122200
7.12003548,4.84984900
7.12670218,4.84939100
7.13336888,4.85000100
7.14003558,4.84939100
7.14670228,4.84969600
7.15336898,4.85091700
7.16003568,4.84954400
7.16670238,4.84878100
7.17336908,4.84954400
7.18003578,4.84923800
7.18670248,4.85061200
7.19336918,4.84969600
7.20003588,4.84954400
7.20670258,4.84954400
7.21336928,4.84969600
7.22003598,4.85000100
7.22670268,4.85061200
7.23336938,4.84923800
7.24003608,4.84969600
7.24670278,4.85061200
7.25336948,4.85061200
7.26003618,4.85030700
7.26670288,4.84939100
7.27336958,4.84969600
7.28003628,4.84954400
7.28670298,4.84862800
7.29336968,4.85030700
7.30003638,4.85045900
7.30670308,4.85000100
7.31336978,4.84847500
7.32003648,4.84954400
7.32670318,4.84954400
7.33336988,4.84923800
7.34003658,4.85000100
7.34670328,4.85045900
7.35336998,4.84984900
7.36003668,4.85000100
7.36670338,4.84969600
7.37337008,4.84923800
7.38003678,4.84862800
7.38670348,4.84969600
7.39337018,4.85000100
7.40003688,4.84969600
7.40670358,4.84939100
7.41337028,4.85030700
7.42003698,4.85122200
7.42670368,4.84969600
7.43337038,4.84954400
7.44003708,4.84984900
7.44670378,4.85030700
7.45337048,4.84878100
7.46003718,4.84969600
7.46670388,4.85000100
7.47337058,4.84832300
7.48003728,4.84969600
7.48670398,4.84923800
7.49337068,4.84984900
7.50003738,4.84923800
7.50670408,4.84954400
7.51337078,4.85061200
7.52003748,4.85045900
7.52670418,4.84969600
7.53337088,4.84954400
7.54003758,4.85045900
7.54670428,4.84969600
7.55337098,4.84984900
7.56003768,4.84984900
7.56670438,4.84954400
7.57337108,4.85030700
7.58003777,4.85030700
7.58670447,4.84984900
7.59337117,4.84923800
7.60003787,4.84954400
7.60670457,4.84984900
7.61337127,4.84939100
7.62003797,4.84984900
7.62670467,4.85045900
7.63337137,4.84923800
7.64003807,4.84954400
7.64670477,4.85000100
7.65337147,4.84984900
7.66003817,4.84939100
7.66670487,4.85030700
7.67337157,4.85030700
7.68003827,4.84939100
7.68670497,4.84984900
7.69337167,4.84954400
7.70003837,4.84969600
7.70670507,4.84939100
7.71337177,4.85030700
7.72003847,4.85061200
7.72670517,4.84984900
7.73337187,4.84954400
7.74003857,4.84939100
7.74670527,4.84984900
7.75337197,4.85000100
7.76003867,4.85061200
7.76670537,4.84984900
7.77337207,4.84969600
7.78003877,4.84969600
7.78670547,4.84923800
7.79337217,4.84984900
7.80003887,4.84954400
7.80670557,4.85076400
7.81337227,4.84984900
7.82003897,4.84923800
7.82670567,4.85000100
7.83337237,4.84984900
7.84003907,4.84984900
7.84670577,4.85030700
7.85337247,4.84984900
7.86003917,4.84923800
7.86670587,4.85030700
7.87337257,4.84878100
7.88003927,4.85030700
7.88670597,4.85061200
7.89337267,4.84969600
7.90003937,4.85045900
7.90670607,4.84954400
7.91337277,4.85091700
7.92003947,4.85000100
7.92670617,4.85000100
7.93337287,4.84939100
7.94003957,4.85152700
7.94670627,4.85091700
7.95337297,4.84969600
7.96003967,4.85000100
7.96670637,4.85030700
7.97337307,4.85030700
7.98003977,4.85000100
7.98670647,4.84954400
7.99337317,4.85000100
8.00003987,4.85000100
8.00670657,4.85076400
8.01337327,4.84954400
8.02003997,4.85000100
8.02670667,4.85045900
8.03337337,4.84954400
8.04004007,4.84954400
8.04670677,4.84908600
8.05337347,4.84984900
8.06004017,4.85030700
8.06670687,4.85000100
8.07337357,4.84954400
8.08004027,4.85030700
8.08670697,4.84969600
8.09337367,4.84984900
8.10004037,4.84862800
8.10670707,4.84939100
8.11337377,4.85030700
8.12004047,4.84923800
8.12670717,4.84969600
8.13337387,4.85000100
8.14004057,4.85061200
8.14670727,4.85030700
8.15337397,4.84984900
8.16004067,4.85045900
8.16670737,4.84969600
8.17337407,4.84969600
8.18004077,4.84969600
8.18670746,4.84984900
8.19337416,4.84939100
8.20004086,4.84969600
8.20670756,4.85000100
8.21337426,4.85091700
8.22004096,4.85106900
8.22670766,4.85000100
8.23337436,4.84923800
8.24004106,4.85061200
8.24670776,4.85030700
8.25337446,4.85045900
8.26004116,4.84862800
8.26670786,4.85030700
8.27337456,4.84984900
8.28004126,4.84923800
8.28670796,4.85030700
8.29337466,4.84939100
8.30004136,4.85045900
8.30670806,4.84954400
8.31337476,4.84923800
8.32004146,4.84969600
8.32670816,4.84954400
8.33337486,4.85030700
8.34004156,4.84847500
8.34670826,4.85045900
8.35337496,4.84984900
8.36004166,4.84969600
8.36670836,4.85030700
8.37337506,4.84984900
8.38004176,4.85045900
8.38670846,4.84954400
8.39337516,4.84969600
8.40004186,4.85045900
8.40670856,4.85000100
8.41337526,4.84939100
8.42004196,4.85030700
8.42670866,4.84984900
8.43337536,4.85030700
8.44004206,4.84939100
8.44670876,4.85030700
8.45337546,4.84969600
8.46004216,4.85030700
8.46670886,4.84939100
8.47337556,4.84939100
8.48004226,4.84969600
8.48670896,4.84908600
8.49337566,4.85030700
8.50004236,4.84939100
8.50670906,4.84923800
8.51337576,4.85030700
8.52004246,4.85000100
8.52670916,4.84984900
8.53337586,4.85030700
8.54004256,4.84939100
8.54670926,4.84969600
8.55337596,4.84908600
8.56004266,4.84969600
8.56670936,4.84954400
8.57337606,4.85045900
8.58004276,4.84984900
8.58670946,4.85000100
8.59337616,4.84908600
8.60004286,4.84908600
8.60670956,4.84939100
8.61337626,4.84984900
8.62004296,4.84969600
8.62670966,4.85000100
8.63337636,4.85000100
8.64004306,4.84984900
8.64670976,4.84954400
8.65337646,4.85000100
8.66004316,4.85000100
8.66670986,4.84954400
8.67337656,4.85000100
8.68004326,4.85045900
8.68670996,4.84984900
8.69337666,4.85000100
8.70004336,4.84969600
8.70671006,4.84939100
8.71337676,4.85061200
8.72004346,4.84969600
8.72671016,4.84862800
8.73337686,4.85000100
8.74004356,4.85045900
8.74671026,4.84908600
8.75337696,4.85030700
8.76004366,4.85061200
8.76671036,4.85030700
8.77337706,4.84984900
8.78004376,4.85000100
8.78671046,4.84984900
8.79337715,4.85030700
8.80004385,4.85076400
8.80671055,4.84923800
8.81337725,4.85076400
8.82004395,4.85000100
8.82671065,4.85030700
8.83337735,4.84923800
8.84004405,4.84954400
8.84671075,4.85030700
8.85337745,4.84969600
8.86004415,4.84954400
8.86671085,4.85152700
8.87337755,4.84969600
8.88004425,4.84984900
8.88671095,4.85000100
8.89337765,4.84969600
8.90004435,4.84984900
8.90671105,4.84984900
8.91337775,4.84969600
8.92004445,4.84984900
8.92671115,4.85030700
8.93337785,4.84939100
8.94004455,4.85000100
8.94671125,4.84954400
8.95337795,4.84984900
8.96004465,4.84984900
8.96671135,4.85000100
8.97337805,4.84939100
8.98004475,4.84984900
8.98671145,4.85030700
8.99337815,4.85030700
9.00004485,4.84969600
9.00671155,4.84939100
9.01337825,4.84923800
9.02004495,4.85152700
9.02671165,4.85076400
9.03337835,4.85000100
9.04004505,4.84878100
9.04671175,4.84908600
9.05337845,4.84984900
9.06004515,4.84969600
9.06671185,4.85000100
9.07337855,4.85061200
9.08004525,4.84984900
9.08671195,4.85076400
9.09337865,4.84954400
9.10004535,4.84984900
9.10671205,4.84908600
9.11337875,4.84984900
9.12004545,4.85000100
9.12671215,4.84939100
9.13337885,4.85076400
9.14004555,4.84984900
9.14671225,4.84969600
9.15337895,4.84969600
9.16004565,4.84954400
9.16671235,4.85091700
9.17337905,4.84939100
9.18004575,4.84878100
9.18671245,4.84969600
9.19337915,4.84984900
9.20004585,4.84954400
9.20671255,4.85000100
9.21337925,4.84969600
9.22004595,4.84939100
9.22671265,4.85030700
9.23337935,4.84939100
9.24004605,4.85030700
9.24671275,4.84954400
9.25337945,4.84923800
9.26004615,4.84969600
9.26671285,4.85000100
9.27337955,4.84954400
9.28004625,4.85000100
9.28671295,4.84969600
9.29337965,4.85030700
9.30004635,4.85030700
9.30671305,4.85030700
9.31337975,4.84954400
9.32004645,4.84984900
9.32671315,4.84984900
9.33337985,4.84984900
9.34004655,4.84878100
9.34671325,4.84969600
9.35337995,4.85000100
9.36004665,4.84954400
9.36671335,4.84939100
9.37338005,4.84954400
9.38004675,4.84954400
9.38671345,4.85000100
9.39338015,4.85045900
9.40004684,4.84984900
9.40671354,4.85030700
9.41338024,4.84969600
9.42004694,4.84969600
9.42671364,4.85030700
9.43338034,4.84969600
9.44004704,4.84954400
9.44671374,4.84954400
9.45338044,4.85061200
9.46004714,4.85000100
9.46671384,4.84939100
9.47338054,4.85045900
9.48004724,4.84984900
9.48671394,4.85061200
9.49338064,4.84908600
9.50004734,4.85061200
9.50671404,4.84954400
9.51338074,4.85045900
9.52004744,4.84908600
9.52671414,4.84984900
9.53338084,4.84939100
9.54004754,4.84984900
9.54671424,4.84817000
9.55338094,4.85030700
9.56004764,4.84954400
9.56671434,4.85030700
9.57338104,4.85045900
9.58004774,4.84984900
9.58671444,4.84923800
9.59338114,4.85000100
9.60004784,4.84954400
9.60671454,4.85045900
9.61338124,4.84923800
9.62004794,4.84969600
9.62671464,4.84923800
9.63338134,4.85000100
9.64004804,4.84939100
9.64671474,4.85000100
9.65338144,4.84939100
9.66004814,4.85030700
9.66671484,4.85076400
9.67338154,4.85000100
9.68004824,4.84954400
9.68671494,4.84954400
9.69338164,4.85076400
9.70004834,4.84954400
9.70671504,4.85000100
9.71338174,4.84969600
9.72004844,4.84984900
9.72671514,4.84954400
9.73338184,4.84969600
9.74004854,4.85000100
9.74671524,4.84969600
9.75338194,4.84984900
9.76004864,4.84954400
9.76671534,4.84939100
9.77338204,4.85000100
9.78004874,4.85030700
9.78671544,4.84923800
9.79338214,4.84984900
9.80004884,4.84984900
9.80671554,4.85030700
9.81338224,4.85030700
9.82004894,4.85091700
9.82671564,4.84969600
9.83338234,4.85030700
9.84004904,4.85000100
9.84671574,4.84969600
9.85338244,4.85030700
9.86004914,4.84984900
9.86671584,4.84923800
9.87338254,4.85045900
9.88004924,4.84954400
9.88671594,4.85061200
9.89338264,4.84954400
9.90004934,4.84954400
9.90671604,4.84984900
9.91338274,4.84954400
9.92004944,4.85000100
9.92671614,4.85045900
9.93338284,4.84969600
9.94004954,4.84939100
9.94671624,4.84923800
9.95338294,4.84969600
9.96004964,4.85061200
9.96671634,4.85000100
9.97338304,4.84939100
9.98004974,4.85000100
9.98671644,4.85000100
9.99338314,4.84878100
10.00004984,4.84984900
10.00671653,4.85045900
10.01338323,4.84939100
10.02004993,4.85045900
10.02671663,4.85030700
10.03338333,4.84984900
10.04005003,4.84969600
10.04671673,4.84969600
10.05338343,4.84939100
10.06005013,4.84969600
10.06671683,4.85030700
10.07338353,4.84862800
10.08005023,4.84984900
10.08671693,4.85030700
10.09338363,4.85061200
10.10005033,4.84969600
10.10671703,4.84954400
10.11338373,4.85000100
10.12005043,4.84969600
10.12671713,4.85000100
10.13338383,4.84939100
10.14005053,4.84969600
10.14671723,4.85045900
10.15338393,4.84939100
10.16005063,4.84939100
10.16671733,4.85030700
10.17338403,4.84969600
10.18005073,4.84984900
10.18671743,4.84908600
10.19338413,4.84969600
10.20005083,4.84954400
10.20671753,4.85000100
10.21338423,4.84984900
10.22005093,4.84923800
10.22671763,4.84969600
10.23338433,4.85030700
10.24005103,4.84984900
10.24671773,4.84969600
10.25338443,4.85045900
10.26005113,4.84969600
10.26671783,4.84969600
10.27338453,4.85045900
10.28005123,4.85061200
10.28671793,4.84984900
10.29338463,4.84954400
10.30005133,4.85045900
10.30671803,4.85000100
10.31338473,4.85030700
10.32005143,4.84939100
10.32671813,4.85061200
10.33338483,4.85000100
10.34005153,4.84954400
10.34671823,4.84984900
10.35338493,4.84847500
10.36005163,4.85030700
10.36671833,4.85106900
10.37338503,4.84984900
10.38005173,4.84969600
10.38671843,4.84984900
10.39338513,4.84939100
10.40005183,4.84969600
10.40671853,4.84908600
10.41338523,4.84939100
10.42005193,4.85061200
10.42671863,4.85030700
10.43338533,4.84939100
10.44005203,4.85030700
10.44671873,4.84923800
10.45338543,4.84939100
10.46005213,4.85061200
10.46671883,4.84954400
10.47338553,4.85152700
10.48005223,4.84832300
10.48671893,4.85000100
10.49338563,4.84954400
10.50005233,4.85076400
10.50671903,4.85030700
10.51338573,4.85045900
10.52005243,4.85076400
10.52671913,4.84939100
10.53338583,4.84969600
10.54005253,4.85000100
10.54671923,4.85045900
10.55338593,4.84984900
10.56005263,4.85061200
10.56671933,4.85000100
10.57338603,4.85030700
10.58005273,4.85045900
10.58671943,4.84939100
10.59338613,4.84984900
10.60005283,4.85000100
10.60671953,4.84939100
10.61338622,4.84969600
10.62005292,4.84984900
10.62671962,4.84984900
10.63338632,4.84984900
10.64005302,4.84878100
10.64671972,4.84954400
10.65338642,4.85000100
10.66005312,4.85000100
10.66671982,4.85030700
10.67338652,4.85030700
10.68005322,4.84969600
10.68671992,4.84984900
10.69338662,4.84969600
10.70005332,4.84954400
10.70672002,4.84969600
10.71338672,4.84939100
10.72005342,4.84969600
10.72672012,4.85000100
10.73338682,4.84954400
10.74005352,4.84954400
10.74672022,4.84984900
10.75338692,4.85030700
10.76005362,4.84984900
10.76672032,4.85076400
10.77338702,4.85030700
10.78005372,4.84969600
10.78672042,4.84939100
10.79338712,4.84969600
10.80005382,4.84969600
10.80672052,4.85000100
10.81338722,4.84969600
10.82005392,4.85045900
10.82672062,4.84969600
10.83338732,4.84832300
10.84005402,4.85076400
10.84672072,4.84984900
10.85338742,4.84954400
10.86005412,4.84969600
10.86672082,4.85000100
10.87338752,4.84954400
