Time,Channel A
(s),(V)

0.00000000,4.83932000
0.00666670,4.66795900
0.01333340,4.83687900
0.02000010,4.82970700
0.02666680,4.74562800
0.03333350,4.81414200
0.04000020,4.73052200
0.04666690,4.84237200
0.05333360,4.84160900
0.06000030,4.83840500
0.06666700,4.70992100
0.07333370,4.73708300
0.08000040,4.68718500
0.08666710,4.84435600
0.09333380,4.73830400
0.10000050,4.83291100
0.10666720,4.80971700
0.11333390,4.75631000
0.12000060,4.84237200
0.12666730,4.81322700
0.13333400,4.84450800
0.14000070,4.82894400
0.14666740,4.71923000
0.15333410,4.68810100
0.16000080,4.75798800
0.16666750,4.82650200
0.17333420,4.82543400
0.18000090,4.82436600
0.18666760,4.83626800
0.19333430,4.67650400
0.20000100,4.84283000
0.20666770,4.84359300
0.21333440,4.79506800
0.22000110,4.84695000
0.22666780,4.83413200
0.23333450,4.78576000
0.24000120,4.84206700
0.24666790,4.75585200
0.25333460,4.84283000
0.26000130,4.84496600
0.26666800,4.83687900
0.27333470,4.84298200
0.28000140,4.71541500
0.28666810,4.68947400
0.29333480,4.84572900
0.30000150,4.78469200
0.30666819,4.67558800
0.31333489,4.83397900
0.32000159,4.62294400
0.32666829,4.69847700
0.33333499,4.73143700
0.34000169,4.84206700
0.34666839,4.84252500
0.35333509,4.84176200
0.36000179,4.71984000
0.36666849,4.84420300
0.37333519,4.84115100
0.38000189,4.82467100
0.38666859,4.71404200
0.39333529,4.83932000
0.40000199,4.84481300
0.40666869,4.70976900
0.41333539,4.83962500
0.42000209,4.73525200
0.42666879,4.83611600
0.43333549,4.71037900
0.44000219,4.84344000
0.44666889,4.84252500
0.45333559,4.84496600
0.46000229,4.83916800
0.46666899,4.83947300
0.47333569,4.83779400
0.48000239,4.83733700
0.48666909,4.84038800
0.49333579,4.84206700
0.50000249,4.68001400
0.50666919,4.66933200
0.51333589,4.84160900
0.52000259,4.84206700
0.52666929,4.71327900
0.53333599,4.84344000
0.54000269,4.84206700
0.54666939,4.84618700
0.55333609,4.84588100
0.56000279,4.84130400
0.56666949,4.65514100
0.57333619,4.83748900
0.58000289,4.82055100
0.58666959,4.84221900
0.59333629,4.80391800
0.60000299,4.73937200
0.60666969,4.84206700
0.61333639,4.84206700
0.62000309,4.83550500
0.62666979,4.79735700
0.63333649,4.80697100
0.64000319,4.84130400
0.64666989,4.84069300
0.65333659,4.63148900
0.66000329,4.77797800
0.66666999,4.80636000
0.67333669,4.82619700
0.68000339,4.83703100
0.68667009,4.66582300
0.69333679,4.84130400
0.70000349,4.80315500
0.70667019,4.73921900
0.71333689,4.82070400
0.72000359,4.84298200
0.72667029,4.81460000
0.73333699,4.84710200
0.74000369,4.81841500
0.74667039,4.79445800
0.75333709,4.84176200
0.76000379,4.84191400
0.76667049,4.83977800
0.77333719,4.83672600
0.78000389,4.84084600
0.78667059,4.84283000
0.79333729,4.84221900
0.80000399,4.68947400
0.80667069,4.84206700
0.81333739,4.83932000
0.82000409,4.84298200
0.82667079,4.84160900
0.83333749,4.84176200
0.84000419,4.80971700
0.84667089,4.76653300
0.85333759,4.84176200
0.86000429,4.80864900
0.86667099,4.84496600
0.87333769,4.84054100
0.88000439,4.66521200
0.88667109,4.67284200
0.89333779,4.76287100
0.90000449,4.80651300
0.90667119,4.77523100
0.91333788,4.84115100
0.92000458,4.84099900
0.92667128,4.82924900
0.93333798,4.71663600
0.94000468,4.82741800
0.94667138,4.80391800
0.95333808,4.77095800
0.96000478,4.76836400
0.96667148,4.84069300
0.97333818,4.82726500
0.98000488,4.83687900
0.98667158,4.64415400
0.99333828,4.84038800
1.00000498,4.73235300
1.00667168,4.70107100
1.01333838,4.83092700
1.02000508,4.84023600
1.02667178,4.84679700
1.03333848,4.63622000
1.04000518,4.70152900
1.04667188,4.84130400
1.05333858,4.83504700
1.06000528,4.83977800
1.06667198,4.72045000
1.07333868,4.75951400
1.08000538,4.66994200
1.08667208,4.81429500
1.09333878,4.75386800
1.10000548,4.67803000
1.10667218,4.84435600
1.11333888,4.84252500
1.12000558,4.84099900
1.12667228,4.79720400
1.13333898,4.65254700
1.14000568,4.72380700
1.14667238,4.83596300
1.15333908,4.84374500
1.16000578,4.73326800
1.16667248,4.83932000
1.17333918,4.84481300
1.18000588,4.72335000
1.18667258,4.84420300
1.19333928,4.78850700
1.20000598,4.83962500
1.20667268,4.68871100
1.21333938,4.84160900
1.22000608,4.84328700
1.22667278,4.71800900
1.23333948,4.84344000
1.24000618,4.83077500
1.24667288,4.84191400
1.25333958,4.82070400
1.26000628,4.73860900
1.26667298,4.68932200
1.27333968,4.79674700
1.28000638,4.65361500
1.28667308,4.63927100
1.29333978,4.72014500
1.30000648,4.69679900
1.30667318,4.84176200
1.31333988,4.83718400
1.32000658,4.81719400
1.32667328,4.82451900
1.33333998,4.73296300
1.34000668,4.83977800
1.34667338,4.80193500
1.35334008,4.82924900
1.36000678,4.84054100
1.36667348,4.83703100
1.37334018,4.81872000
1.38000688,4.66155000
1.38667358,4.84633900
1.39334028,4.70030800
1.40000698,4.84527100
1.40667368,4.77919900
1.41334038,4.84237200
1.42000708,4.83687900
1.42667378,4.84542400
1.43334048,4.84054100
1.44000718,4.84405000
1.44667388,4.83428400
1.45334058,4.84054100
1.46000728,4.84084600
1.46667398,4.67940300
1.47334068,4.83443700
1.48000738,4.83062200
1.48667408,4.68565900
1.49334078,4.84191400
1.50000748,4.84130400
1.50667418,4.82345100
1.51334088,4.84283000
1.52000757,4.84176200
1.52667427,4.84527100
1.53334097,4.62828400
1.54000767,4.84206700
1.54667437,4.76668600
1.55334107,4.84344000
1.56000777,4.62111300
1.56667447,4.82238200
1.57334117,4.72701200
1.58000787,4.78286100
1.58667457,4.65575100
1.59334127,4.82558700
1.60000797,4.82375600
1.60667467,4.83336900
1.61334137,4.76531300
1.62000807,4.71434700
1.62667477,4.79293200
1.63334147,4.63545700
1.64000817,4.82055100
1.64667487,4.84313500
1.65334157,4.84374500
1.66000827,4.84191400
1.66667497,4.63469400
1.67334167,4.75203700
1.68000837,4.71022700
1.68667507,4.84191400
1.69334177,4.84359300
1.70000847,4.73555700
1.70667517,4.75524100
1.71334187,4.83825200
1.72000857,4.84450800
1.72667527,4.73555700
1.73334197,4.84588100
1.74000867,4.83352100
1.74667537,4.84237200
1.75334207,4.70259700
1.76000877,4.64262800
1.76667547,4.69023700
1.77334217,4.74745900
1.78000887,4.84099900
1.78667557,4.77340000
1.79334227,4.68123400
1.80000897,4.84298200
1.80667567,4.84725500
1.81334237,4.84481300
1.82000907,4.83977800
1.82667577,4.68016600
1.83334247,4.84160900
1.84000917,4.80544500
1.84667587,4.67818200
1.85334257,4.84191400
1.86000927,4.76058200
1.86667597,4.70656400
1.87334267,4.82726500
1.88000937,4.80483400
1.88667607,4.84344000
1.89334277,4.72411300
1.90000947,4.65620900
1.90667617,4.76180300
1.91334287,4.81475300
1.92000957,4.65163100
1.92667627,4.67543600
1.93334297,4.79384800
1.94000967,4.81429500
1.94667637,4.78133500
1.95334307,4.68886400
1.96000977,4.83596300
1.96667647,4.84130400
1.97334317,4.84252500
1.98000987,4.84328700
1.98667657,4.76805900
1.99334327,4.84176200
2.00000997,4.67024800
2.00667667,4.74303400
2.01334337,4.84527100
2.02001007,4.81368400
2.02667677,4.84084600
2.03334347,4.84572900
2.04001017,4.84160900
2.04667687,4.84466100
2.05334357,4.84237200
2.06001027,4.84298200
2.06667697,4.76165100
2.07334367,4.84542400
2.08001037,4.83611600
2.08667707,4.84527100
2.09334377,4.81460000
2.10001047,4.81093800
2.10667717,4.75646200
2.11334387,4.83901500
2.12001057,4.84481300
2.12667726,4.82985900
2.13334396,4.68276000
2.14001066,4.84542400
2.14667736,4.84130400
2.15334406,4.84313500
2.16001076,4.81795700
2.16667746,4.83871000
2.17334416,4.84069300
2.18001086,4.84664400
2.18667756,4.75814100
2.19334426,4.84206700
2.20001096,4.68047100
2.20667766,4.84130400
2.21334436,4.81109000
2.22001106,4.84038800
2.22667776,4.84374500
2.23334446,4.74135500
2.24001116,4.63606700
2.24667786,4.83977800
2.25334456,4.64247600
2.26001126,4.72884300
2.26667796,4.84069300
2.27334466,4.84481300
2.28001136,4.76882200
2.28667806,4.84054100
2.29334476,4.81978800
2.30001146,4.84252500
2.30667816,4.84054100
2.31334486,4.63866100
2.32001156,4.83184300
2.32667826,4.84038800
2.33334496,4.82299300
2.34001166,4.84466100
2.34667836,4.84038800
2.35334506,4.84252500
2.36001176,4.84496600
2.36667846,4.75875100
2.37334516,4.73357300
2.38001186,4.84160900
2.38667856,4.84435600
2.39334526,4.84115100
2.40001196,4.83977800
2.40667866,4.72701200
2.41334536,4.84572900
2.42001206,4.63988200
2.42667876,4.69878200
2.43334546,4.83153800
2.44001216,4.84435600
2.44667886,4.62477500
2.45334556,4.72792800
2.46001226,4.84313500
2.46667896,4.84237200
2.47334566,4.71556800
2.48001236,4.80681800
2.48667906,4.83916800
2.49334576,4.82833300
2.50001246,4.62828400
2.50667916,4.82055100
2.51334586,4.71572000
2.52001256,4.69130500
2.52667926,4.75753000
2.53334596,4.84435600
2.54001266,4.70305500
2.54667936,4.73860900
2.55334606,4.82802800
2.56001276,4.84344000
2.56667946,4.83596300
2.57334616,4.84557600
2.58001286,4.66429700
2.58667956,4.84466100
2.59334626,4.84191400
2.60001296,4.84588100
2.60667966,4.84328700
2.61334636,4.71190500
2.62001306,4.69878200
2.62667976,4.63484600
2.63334646,4.83825200
2.64001316,4.83993100
2.64667986,4.78728600
2.65334656,4.77019500
2.66001326,4.70107100
2.66667996,4.84069300
2.67334666,4.83596300
2.68001336,4.84328700
2.68668006,4.84527100
2.69334676,4.83809900
2.70001346,4.81353200
2.70668016,4.84313500
2.71334686,4.84252500
2.72001356,4.83871000
2.72668026,4.77874100
2.73334695,4.83809900
2.74001365,4.78774400
2.74668035,4.84298200
2.75334705,4.83413200
2.76001375,4.68871100
2.76668045,4.69893500
2.77334715,4.84176200
2.78001385,4.69008400
2.78668055,4.75432600
2.79334725,4.82314500
2.80001395,4.65010500
2.80668065,4.84069300
2.81334735,4.84221900
2.82001405,4.77401100
2.82668075,4.67970800
2.83334745,4.73235300
2.84001415,4.84176200
2.84668085,4.84557600
2.85334755,4.84298200
2.86001425,4.84130400
2.86668095,4.84313500
2.87334765,4.64278100
2.88001435,4.63454100
2.88668105,4.84023600
2.89334775,4.66292300
2.90001445,4.83871000
2.90668115,4.71831400
2.91334785,4.84344000
2.92001455,4.84099900
2.92668125,4.83504700
2.93334795,4.84283000
2.94001465,4.84252500
2.94668135,4.77462100
2.95334805,4.83977800
2.96001475,4.64507000
2.96668145,4.84435600
2.97334815,4.84237200
2.98001485,4.83367400
2.98668155,4.84206700
2.99334825,4.83581000
3.00001495,4.83947300
3.00668165,4.68565900
3.01334835,4.83153800
3.02001505,4.68916900
3.02668175,4.84435600
3.03334845,4.81582100
3.04001515,4.84054100
3.04668185,4.83809900
3.05334855,4.76653300
3.06001525,4.65239400
3.06668195,4.84313500
3.07334865,4.70534400
3.08001535,4.82100900
3.08668205,4.84191400
3.09334875,4.83336900
3.10001545,4.84160900
3.10668215,4.84191400
3.11334885,4.70442800
3.12001555,4.67345200
3.12668225,4.64354400
3.13334895,4.67162100
3.14001565,4.83321600
3.14668235,4.84160900
3.15334905,4.84130400
3.16001575,4.76561800
3.16668245,4.81643100
3.17334915,4.62340200
3.18001585,4.82192500
3.18668255,4.81475300
3.19334925,4.84069300
3.20001595,4.84084600
3.20668265,4.64995300
3.21334935,4.82833300
3.22001605,4.76393900
3.22668275,4.79308500
3.23334945,4.83825200
3.24001615,4.84664400
3.24668285,4.70442800
3.25334955,4.84359300
3.26001625,4.64995300
3.26668295,4.84176200
3.27334965,4.84527100
3.28001635,4.75402100
3.28668305,4.84038800
3.29334975,4.83748900
3.30001645,4.80422400
3.30668315,4.84221900
3.31334985,4.84191400
3.32001655,4.84099900
3.32668325,4.84237200
3.33334995,4.72563800
3.34001664,4.84206700
3.34668334,4.75081600
3.35335004,4.84344000
3.36001674,4.78591300
3.36668344,4.66139700
3.37335014,4.66292300
3.38001684,4.83230100
3.38668354,4.84252500
3.39335024,4.82650200
3.40001694,4.68504900
3.40668364,4.84038800
3.41335034,4.67925000
3.42001704,4.83428400
3.42668374,4.68779600
3.43335044,4.75432600
3.44001714,4.84405000
3.44668384,4.81154800
3.45335054,4.84023600
3.46001724,4.65269900
3.46668394,4.84328700
3.47335064,4.68932200
3.48001734,4.84237200
3.48668404,4.78637000
3.49335074,4.72167100
3.50001744,4.84572900
3.50668414,4.62965800
3.51335084,4.84176200
3.52001754,4.72945400
3.52668424,4.84176200
3.53335094,4.83901500
3.54001764,4.65590400
3.54668434,4.82665500
3.55335104,4.84084600
3.56001774,4.81337900
3.56668444,4.67055300
3.57335114,4.80391800
3.58001784,4.84130400
3.58668454,4.84374500
3.59335124,4.81231100
3.60001794,4.84038800
3.60668464,4.84191400
3.61335134,4.84618700
3.62001804,4.79857800
3.62668474,4.65620900
3.63335144,4.84176200
3.64001814,4.67360400
3.64668484,4.83306400
3.65335154,4.76622800
3.66001824,4.84313500
3.66668494,4.84481300
3.67335164,4.70137600
3.68001834,4.83169000
3.68668504,4.84054100
3.69335174,4.63377800
3.70001844,4.62355400
3.70668514,4.84206700
3.71335184,4.64781600
3.72001854,4.71236300
3.72668524,4.64644300
3.73335194,4.83809900
3.74001864,4.77278900
3.74668534,4.84603400
3.75335204,4.84557600
3.76001874,4.63713500
3.76668544,4.74456000
3.77335214,4.84420300
3.78001884,4.66048100
3.78668554,4.65346200
3.79335224,4.75692000
3.80001894,4.84130400
3.80668564,4.81811000
3.81335234,4.84344000
3.82001904,4.64018700
3.82668574,4.80803900
3.83335244,4.84283000
3.84001914,4.82818100
3.84668584,4.73586200
3.85335254,4.79354200
3.86001924,4.61653500
3.86668594,4.72869100
3.87335264,4.83214800
3.88001934,4.83977800
3.88668604,4.75249500
3.89335274,4.84069300
3.90001944,4.84084600
3.90668614,4.77141600
3.91335284,4.82665500
3.92001954,4.72136600
3.92668624,4.83489500
3.93335294,4.84344000
3.94001964,4.78591300
3.94668633,4.84405000
3.95335303,4.84237200
3.96001973,4.66490700
3.96668643,4.84313500
3.97335313,4.62859000
3.98001983,4.84176200
3.98668653,4.79537300
3.99335323,4.80056100
4.00001993,4.84450800
4.00668663,4.80849600
4.01335333,4.67757200
4.02002003,4.70702200
4.02668673,4.83687900
4.03335343,4.67467300
4.04002013,4.84481300
4.04668683,4.80391800
4.05335353,4.84405000
4.06002023,4.64980000
4.06668693,4.68276000
4.07335363,4.76027700
4.08002033,4.84252500
4.08668703,4.84038800
4.09335373,4.83871000
4.10002043,4.84191400
4.10668713,4.80483400
4.11335383,4.84176200
4.12002053,4.84054100
4.12668723,4.83916800
4.13335393,4.69740900
4.14002063,4.84557600
4.14668733,4.84374500
4.15335403,4.84420300
4.16002073,4.83611600
4.16668743,4.73616700
4.17335413,4.65712500
4.18002083,4.84099900
4.18668753,4.79415300
4.19335423,4.84038800
4.20002093,4.84191400
4.20668763,4.84633900
4.21335433,4.70107100
4.22002103,4.72991100
4.22668773,4.77767300
4.23335443,4.81322700
4.24002113,4.84527100
4.24668783,4.84191400
4.25335453,4.66994200
4.26002123,4.84420300
4.26668793,4.83321600
4.27335463,4.84664400
4.28002133,4.84069300
4.28668803,4.67421500
4.29335473,4.84237200
4.30002143,4.84542400
4.30668813,4.83245300
4.31335483,4.82665500
4.32002153,4.74410200
4.32668823,4.84405000
4.33335493,4.84176200
4.34002163,4.72228100
4.34668833,4.82863900
4.35335503,4.63194700
4.36002173,4.84496600
4.36668843,4.72945400
4.37335513,4.84038800
4.38002183,4.84191400
4.38668853,4.84405000
4.39335523,4.79827300
4.40002193,4.84160900
4.40668863,4.84359300
4.41335533,4.84344000
4.42002203,4.81200600
4.42668873,4.84084600
4.43335543,4.71831400
4.44002213,4.84420300
4.44668883,4.78103000
4.45335553,4.83962500
4.46002223,4.84344000
4.46668893,4.84359300
4.47335563,4.80941200
4.48002233,4.84298200
4.48668903,4.83993100
4.49335573,4.82894400
4.50002243,4.84618700
4.50668913,4.84298200
4.51335583,4.73357300
4.52002253,4.82375600
4.52668923,4.84405000
4.53335593,4.84084600
4.54002263,4.82528200
4.54668933,4.80544500
4.55335602,4.83184300
4.56002272,4.84130400
4.56668942,4.72853800
4.57335612,4.82787600
4.58002282,4.84298200
4.58668952,4.84298200
4.59335622,4.75035900
4.60002292,4.82985900
4.60668962,4.84527100
4.61335632,4.70992100
4.62002302,4.76134500
4.62668972,4.83581000
4.63335642,4.84069300
4.64002312,4.83733700
4.64668982,4.84283000
4.65335652,4.84176200
4.66002322,4.84115100
4.66668992,4.84283000
4.67335662,4.65712500
4.68002332,4.83123300
4.68669002,4.83947300
4.69335672,4.64278100
4.70002342,4.82451900
4.70669012,4.80971700
4.71335682,4.70564900
4.72002352,4.84069300
4.72669022,4.64629000
4.73335692,4.84435600
4.74002362,4.84313500
4.74669032,4.84450800
4.75335702,4.82772300
4.76002372,4.84633900
4.76669042,4.84328700
4.77335712,4.63774500
4.78002382,4.74883300
4.78669052,4.84191400
4.79335722,4.81933000
4.80002392,4.84435600
4.80669062,4.84420300
4.81335732,4.75890400
4.82002402,4.70793800
4.82669072,4.84176200
4.83335742,4.69878200
4.84002412,4.83779400
4.84669082,4.84603400
4.85335752,4.84069300
4.86002422,4.68169200
4.86669092,4.73448900
4.87335762,4.83962500
4.88002432,4.76500700
4.88669102,4.80987000
4.89335772,4.81566800
4.90002442,4.83062200
4.90669112,4.84588100
4.91335782,4.84221900
4.92002452,4.84206700
4.92669122,4.84221900
4.93335792,4.83748900
4.94002462,4.81765200
4.94669132,4.63576200
4.95335802,4.84527100
4.96002472,4.84221900
4.96669142,4.63759300
4.97335812,4.75447800
4.98002482,4.78347100
4.98669152,4.83932000
4.99335822,4.82528200
5.00002492,4.83108000
5.00669162,4.84450800
5.01335832,4.70381800
5.02002502,4.80300300
5.02669172,4.74074500
5.03335842,4.83748900
5.04002512,4.65056300
5.04669182,4.74837500
5.05335852,4.84206700
5.06002522,4.83779400
5.06669192,4.84130400
5.07335862,4.82360300
5.08002532,4.84359300
5.08669202,4.62416500
5.09335872,4.68749000
5.10002542,4.83840500
5.10669212,4.62752200
5.11335882,4.82955400
5.12002552,4.76500700
5.12669222,4.83275800
5.13335892,4.84405000
5.14002562,4.84191400
5.14669232,4.84450800
5.15335902,4.84206700
5.16002571,4.63927100
5.16669241,4.62996300
5.17335911,4.84283000
5.18002581,4.83687900
5.18669251,4.83535200
5.19335921,4.82497600
5.20002591,4.84084600
5.20669261,4.63698200
5.21335931,4.80514000
5.22002601,4.84405000
5.22669271,4.76043000
5.23335941,4.83932000
5.24002611,4.83809900
5.24669281,4.70534400
5.25335951,4.71053200
5.26002621,4.84038800
5.26669291,4.84130400
5.27335961,4.84572900
5.28002631,4.84099900
5.28669301,4.80208700
5.29335971,4.84206700
5.30002641,4.82497600
5.30669311,4.65590400
5.31335981,4.84237200
5.32002651,4.83367400
5.32669321,4.84038800
5.33335991,4.83993100
5.34002661,4.84542400
5.34669331,4.84191400
5.35336001,4.83703100
5.36002671,4.82558700
5.36669341,4.84252500
5.37336011,4.63820300
5.38002681,4.84160900
5.38669351,4.84221900
5.39336021,4.84206700
5.40002691,4.74990100
5.40669361,4.80681800
5.41336031,4.84160900
5.42002701,4.81231100
5.42669371,4.84237200
5.43336041,4.65025800
5.44002711,4.84130400
5.44669381,4.64842700
5.45336051,4.73677800
5.46002721,4.84374500
5.46669391,4.81154800
5.47336061,4.83199500
5.48002731,4.84283000
5.48669401,4.83535200
5.49336071,4.79232200
5.50002741,4.84328700
5.50669411,4.84038800
5.51336081,4.70030800
5.52002751,4.74715400
5.52669421,4.83718400
5.53336091,4.76943300
5.54002761,4.84099900
5.54669431,4.84344000
5.55336101,4.84283000
5.56002771,4.81200600
5.56669441,4.84527100
5.57336111,4.84740700
5.58002781,4.75020600
5.58669451,4.83993100
5.59336121,4.82329800
5.60002791,4.84557600
5.60669461,4.83214800
5.61336131,4.84221900
5.62002801,4.73632000
5.62669471,4.72121300
5.63336141,4.83779400
5.64002811,4.84130400
5.64669481,4.83581000
5.65336151,4.83977800
5.66002821,4.76043000
5.66669491,4.84603400
5.67336161,4.74379700
5.68002831,4.69542500
5.68669501,4.80025600
5.69336171,4.73281000
5.70002841,4.66933200
5.70669511,4.83108000
5.71336181,4.84130400
5.72002851,4.84405000
5.72669521,4.66460200
5.73336191,4.66628000
5.74002861,4.84206700
5.74669531,4.84191400
5.75336201,4.84038800
5.76002871,4.84130400
5.76669540,4.76897500
5.77336210,4.84344000
5.78002880,4.63576200
5.78669550,4.76149800
5.79336220,4.84283000
5.80002890,4.67879200
5.80669560,4.76210800
5.81336230,4.82985900
5.82002900,4.81429500
5.82669570,4.74761200
5.83336240,4.83825200
5.84002910,4.79689900
5.84669580,4.63774500
5.85336250,4.83947300
5.86002920,4.77660500
5.86669590,4.84252500
5.87336260,4.64354400
5.88002930,4.83977800
5.88669600,4.84115100
5.89336270,4.75432600
5.90002940,4.79216900
5.90669610,4.83184300
5.91336280,4.83504700
5.92002950,4.83809900
5.92669620,4.82055100
5.93336290,4.84481300
5.94002960,4.84176200
5.94669630,4.84313500
5.95336300,4.84130400
5.96002970,4.69039000
5.96669640,4.71358400
5.97336310,4.84160900
5.98002980,4.73326800
5.98669650,4.84481300
5.99336320,4.84618700
6.00002990,4.62965800
6.00669660,4.72731700
6.01336330,4.84252500
6.02003000,4.71495700
6.02669670,4.79766200
6.03336340,4.83214800
6.04003010,4.76744900
6.04669680,4.84420300
6.05336350,4.84298200
6.06003020,4.84115100
6.06669690,4.83825200
6.07336360,4.70320700
6.08003030,4.80193500
6.08669700,4.77935100
6.09336370,4.80452900
6.10003040,4.78560700
6.10669710,4.84588100
6.11336380,4.68871100
6.12003050,4.84099900
6.12669720,4.84191400
6.13336390,4.84313500
6.14003060,4.81978800
6.14669730,4.82711300
6.15336400,4.84466100
6.16003070,4.84176200
6.16669740,4.84328700
6.17336410,4.70824300
6.18003080,4.84252500
6.18669750,4.79705200
6.19336420,4.84191400
6.20003090,4.74883300
6.20669760,4.84023600
6.21336430,4.64247600
6.22003100,4.82818100
6.22669770,4.77172100
6.23336440,4.78301300
6.24003110,4.84130400
6.24669780,4.84420300
6.25336450,4.84221900
6.26003120,4.81231100
6.26669790,4.84710200
6.27336460,4.82833300
6.28003130,4.83535200
6.28669800,4.73403100
6.29336470,4.79567900
6.30003140,4.82970700
6.30669810,4.66307500
6.31336480,4.66902700
6.32003150,4.78789600
6.32669820,4.83306400
6.33336490,4.83916800
6.34003160,4.84328700
6.34669830,4.84435600
6.35336500,4.83397900
6.36003170,4.84237200
6.36669839,4.82528200
6.37336509,4.65086800
6.38003179,4.84206700
6.38669849,4.65529300
6.39336519,4.84160900
6.40003189,4.84298200
6.40669859,4.81231100
6.41336529,4.80391800
6.42003199,4.74684900
6.42669869,4.84466100
6.43336539,4.84527100
6.44003209,4.62141800
6.44669879,4.84191400
6.45336549,4.81963500
6.46003219,4.84328700
6.46669889,4.84069300
6.47336559,4.83825200
6.48003229,4.84099900
6.48669899,4.84588100
6.49336569,4.84252500
6.50003239,4.84237200
6.50669909,4.84115100
6.51336579,4.83581000
6.52003249,4.84359300
6.52669919,4.83596300
6.53336589,4.84633900
6.54003259,4.68642200
6.54669929,4.84237200
6.55336599,4.63637200
6.56003269,4.84496600
6.56669939,4.76332900
6.57336609,4.75264700
6.58003279,4.78652300
6.58669949,4.84603400
6.59336619,4.84420300
6.60003289,4.82604500
6.60669959,4.82940100
6.61336629,4.80864900
6.62003299,4.78133500
6.62669969,4.84435600
6.63336639,4.84069300
6.64003309,4.82177200
6.64669979,4.84115100
6.65336649,4.70183400
6.66003319,4.78011400
6.66669989,4.84252500
6.67336659,4.74990100
6.68003329,4.81307400
6.68669999,4.75371600
6.69336669,4.74395000
6.70003339,4.63209900
6.70670009,4.70915800
6.71336679,4.84420300
6.72003349,4.84252500
6.72670019,4.77050100
6.73336689,4.74257700
6.74003359,4.84374500
6.74670029,4.67146800
6.75336699,4.84191400
6.76003369,4.83993100
6.76670039,4.84176200
6.77336709,4.83245300
6.78003379,4.83428400
6.78670049,4.84435600
6.79336719,4.84221900
6.80003389,4.82772300
6.80670059,4.84283000
6.81336729,4.84298200
6.82003399,4.63896600
6.82670069,4.84130400
6.83336739,4.65468300
6.84003409,4.84115100
6.84670079,4.68337100
6.85336749,4.65681900
6.86003419,4.69069500
6.86670089,4.84557600
6.87336759,4.70442800
6.88003429,4.76699100
6.88670099,4.66017600
6.89336769,4.84176200
6.90003439,4.84527100
6.90670109,4.84054100
6.91336779,4.84618700
6.92003449,4.82787600
6.92670119,4.84206700
6.93336789,4.78270800
6.94003459,4.72289200
6.94670129,4.84115100
6.95336799,4.71022700
6.96003469,4.83840500
6.96670139,4.62569000
6.97336808,4.81429500
6.98003478,4.82787600
6.98670148,4.83733700
6.99336818,4.72197600
7.00003488,4.84191400
7.00670158,4.81734700
7.01336828,4.84221900
7.02003498,4.84038800
7.02670168,4.84176200
7.03336838,4.84496600
7.04003508,4.78103000
7.04670178,4.83916800
7.05336848,4.84191400
7.06003518,4.83565800
7.06670188,4.84283000
7.07336858,4.83291100
7.08003528,4.84023600
7.08670198,4.64323900
7.09336868,4.72731700
7.10003538,4.83062200
7.10670208,4.68642200
7.11336878,4.83626800
7.12003548,4.84054100
7.12670218,4.84328700
7.13336888,4.84069300
7.14003558,4.84572900
7.14670228,4.84221900
7.15336898,4.64171300
7.16003568,4.84252500
7.16670238,4.83993100
7.17336908,4.84603400
7.18003578,4.82894400
7.18670248,4.82497600
7.19336918,4.84405000
7.20003588,4.84344000
7.20670258,4.78347100
7.21336928,4.76836400
7.22003598,4.64384900
7.22670268,4.83993100
7.23336938,4.84099900
7.24003608,4.83977800
7.24670278,4.81978800
7.25336948,4.82985900
7.26003618,4.72640100
7.26670288,4.84206700
7.27336958,4.71724600
7.28003628,4.68627000
7.28670298,4.84344000
7.29336968,4.84542400
7.30003638,4.71541500
7.30670308,4.78179300
7.31336978,4.84359300
7.32003648,4.82345100
7.32670318,4.83901500
7.33336988,4.84206700
7.34003658,4.84130400
7.34670328,4.84130400
7.35336998,4.71297400
7.36003668,4.78057200
7.36670338,4.84054100
7.37337008,4.84466100
7.38003678,4.81902500
7.38670348,4.83993100
7.39337018,4.84328700
7.40003688,4.84283000
7.40670358,4.83947300
7.41337028,4.84115100
7.42003698,4.82467100
7.42670368,4.83947300
7.43337038,4.84603400
7.44003708,4.84527100
7.44670378,4.66277000
7.45337048,4.72655400
7.46003718,4.84023600
7.46670388,4.84130400
7.47337058,4.84572900
7.48003728,4.61104200
7.48670398,4.66414400
7.49337068,4.83733700
7.50003738,4.70824300
7.50670408,4.84206700
7.51337078,4.84344000
7.52003748,4.84099900
7.52670418,4.84099900
7.53337088,4.84542400
7.54003758,4.74303400
7.54670428,4.84298200
7.55337098,4.73738800
7.56003768,4.66963700
7.56670438,4.71800900
7.57337108,4.81566800
7.58003777,4.83825200
7.58670447,4.84359300
7.59337117,4.72014500
7.60003787,4.84115100
7.60670457,4.83825200
7.61337127,4.84328700
7.62003797,4.84588100
7.62670467,4.77355200
7.63337137,4.64140700
7.64003807,4.80925900
7.64670477,4.65269900
7.65337147,4.84283000
7.66003817,4.84313500
7.66670487,4.84588100
7.67337157,4.84252500
7.68003827,4.84252500
7.68670497,4.69191600
7.69337167,4.67894500
7.70003837,4.84099900
7.70670507,4.84176200
7.71337177,4.83474200
7.72003847,4.84313500
7.72670517,4.75020600
7.73337187,4.84298200
7.74003857,4.84130400
7.74670527,4.67680900
7.75337197,4.84084600
7.76003867,4.63484600
7.76670537,4.69573100
7.77337207,4.68230200
7.78003877,4.82192500
7.78670547,4.76638100
7.79337217,4.64110200
7.80003887,4.84283000
7.80670557,4.80147700
7.81337227,4.84450800
7.82003897,4.82345100
7.82670567,4.83809900
7.83337237,4.72853800
7.84003907,4.84481300
7.84670577,4.84160900
7.85337247,4.81872000
7.86003917,4.84313500
7.86670587,4.62233400
7.87337257,4.68260800
7.88003927,4.84191400
7.88670597,4.82772300
7.89337267,4.82284000
7.90003937,4.84313500
7.90670607,4.84191400
7.91337277,4.84527100
7.92003947,4.83947300
7.92670617,4.73052200
7.93337287,4.81933000
7.94003957,4.80971700
7.94670627,4.84420300
7.95337297,4.84695000
7.96003967,4.70152900
7.96670637,4.84435600
7.97337307,4.84191400
7.98003977,4.68916900
7.98670647,4.82070400
7.99337317,4.83291100
8.00003987,4.82818100
8.00670657,4.84603400
8.01337327,4.84664400
8.02003997,4.65041100
8.02670667,4.84481300
8.03337337,4.84237200
8.04004007,4.84496600
8.04670677,4.73754100
8.05337347,4.78011400
8.06004017,4.84023600
8.06670687,4.84435600
8.07337357,4.83153800
8.08004027,4.84191400
8.08670697,4.69740900
8.09337367,4.84344000
8.10004037,4.74532300
8.10670707,4.83901500
8.11337377,4.65880300
8.12004047,4.84084600
8.12670717,4.77584200
8.13337387,4.80071400
8.14004057,4.84191400
8.14670727,4.71923000
8.15337397,4.83901500
8.16004067,4.66002400
8.16670737,4.66185500
8.17337407,4.82772300
8.18004077,4.65117400
8.18670746,4.67864000
8.19337416,4.84374500
8.20004086,4.84084600
8.20670756,4.80956500
8.21337426,4.84527100
8.22004096,4.84252500
8.22670766,4.83855700
8.23337436,4.68779600
8.24004106,4.72624900
8.24670776,4.82451900
8.25337446,4.84603400
8.26004116,4.84725500
8.26670786,4.84176200
8.27337456,4.83977800
8.28004126,4.81948300
8.28670796,4.83703100
8.29337466,4.82940100
8.30004136,4.74196600
8.30670806,4.82909600
8.31337476,4.83550500
8.32004146,4.71053200
8.32670816,4.84359300
8.33337486,4.82406100
8.34004156,4.83962500
8.34670826,4.80437600
8.35337496,4.84603400
8.36004166,4.84252500
8.36670836,4.84038800
8.37337506,4.84252500
8.38004176,4.84054100
8.38670846,4.65926100
8.39337516,4.66414400
8.40004186,4.78652300
8.40670856,4.84344000
8.41337526,4.79644200
8.42004196,4.83458900
8.42670866,4.65407300
8.43337536,4.84695000
8.44004206,4.84130400
8.44670876,4.84176200
8.45337546,4.79339000
8.46004216,4.84359300
8.46670886,4.79140600
8.47337556,4.73204800
8.48004226,4.84603400
8.48670896,4.84069300
8.49337566,4.69618800
8.50004236,4.84206700
8.50670906,4.83779400
8.51337576,4.80132400
8.52004246,4.73738800
8.52670916,4.69847700
8.53337586,4.65453100
8.54004256,4.84542400
8.54670926,4.62981000
8.55337596,4.84160900
8.56004266,4.84374500
8.56670936,4.83779400
8.57337606,4.65178400
8.58004276,4.65849800
8.58670946,4.78957500
8.59337616,4.84374500
8.60004286,4.84084600
8.60670956,4.84038800
8.61337626,4.79216900
8.62004296,4.81902500
8.62670966,4.77538400
8.63337636,4.84572900
8.64004306,4.63362600
8.64670976,4.83153800
8.65337646,4.65773500
8.66004316,4.84527100
8.66670986,4.83733700
8.67337656,4.84557600
8.68004326,4.77095800
8.68670996,4.83855700
8.69337666,4.84176200
8.70004336,4.83748900
8.70671006,4.84572900
8.71337676,4.72136600
8.72004346,4.70732700
8.72671016,4.84572900
8.73337686,4.84115100
8.74004356,4.84252500
8.74671026,4.72655400
8.75337696,4.84099900
8.76004366,4.84298200
8.76671036,4.63988200
8.77337706,4.70366500
8.78004376,4.75539400
8.78671046,4.84481300
8.79337715,4.72182400
8.80004385,4.84374500
8.80671055,4.84313500
8.81337725,4.63133600
8.82004395,4.83779400
8.82671065,4.66872200
8.83337735,4.71877200
8.84004405,4.73281000
8.84671075,4.74334000
8.85337745,4.70305500
8.86004415,4.63530400
8.86671085,4.82482400
8.87337755,4.82375600
8.88004425,4.84542400
8.88671095,4.83001200
8.89337765,4.84176200
8.90004435,4.84160900
8.90671105,4.83932000
8.91337775,4.84405000
8.92004445,4.74593400
8.92671115,4.78270800
8.93337785,4.84115100
8.94004455,4.81093800
8.94671125,4.84420300
8.95337795,4.84679700
8.96004465,4.84115100
8.96671135,4.79384800
8.97337805,4.76668600
8.98004475,4.84237200
8.98671145,4.84069300
8.99337815,4.84115100
9.00004485,4.84069300
9.00671155,4.83855700
9.01337825,4.72396000
9.02004495,4.82894400
9.02671165,4.81994100
9.03337835,4.76775400
9.04004505,4.84206700
9.04671175,4.81200600
9.05337845,4.66795900
9.06004515,4.77813100
9.06671185,4.67513000
9.07337855,4.84283000
9.08004525,4.84221900
9.08671195,4.66093900
9.09337865,4.80834400
9.10004535,4.66795900
9.10671205,4.79018500
9.11337875,4.76882200
9.12004545,4.84298200
9.12671215,4.84099900
9.13337885,4.81414200
9.14004555,4.64156000
9.14671225,4.84374500
9.15337895,4.69725700
9.16004565,4.83596300
9.16671235,4.84084600
9.17337905,4.84435600
9.18004575,4.82924900
9.18671245,4.83718400
9.19337915,4.84588100
9.20004585,4.82833300
9.20671255,4.84252500
9.21337925,4.66414400
9.22004595,4.78103000
9.22671265,4.84237200
9.23337935,4.81612600
9.24004605,4.79842500
9.24671275,4.83901500
9.25337945,4.84496600
9.26004615,4.83840500
9.26671285,4.70732700
9.27337955,4.76043000
9.28004625,4.79781500
9.28671295,4.81063300
9.29337965,4.83916800
9.30004635,4.67513000
9.30671305,4.84344000
9.31337975,4.84496600
9.32004645,4.82924900
9.32671315,4.81688900
9.33337985,4.84374500
9.34004655,4.84588100
9.34671325,4.84160900
9.35337995,4.83871000
9.36004665,4.72960600
9.36671335,4.84420300
9.37338005,4.83901500
9.38004675,4.72884300
9.38671345,4.84435600
9.39338015,4.84191400
9.40004684,4.68688000
9.40671354,4.84206700
9.41338024,4.82696000
9.42004694,4.78789600
9.42671364,4.71480500
9.43338034,4.83977800
9.44004704,4.73662500
9.44671374,4.84283000
9.45338044,4.84160900
9.46004714,4.84252500
9.46671384,4.84038800
9.47338054,4.68306500
9.48004724,4.64507000
9.48671394,4.83291100
9.49338064,4.68749000
9.50004734,4.68047100
9.50671404,4.81566800
9.51338074,4.78576000
9.52004744,4.63042100
9.52671414,4.84603400
9.53338084,4.63194700
9.54004754,4.76668600
9.54671424,4.84435600
9.55338094,4.84618700
9.56004764,4.84664400
9.56671434,4.84740700
9.57338104,4.81475300
9.58004774,4.68092900
9.58671444,4.83962500
9.59338114,4.84221900
9.60004784,4.78804900
9.60671454,4.83672600
9.61338124,4.84527100
9.62004794,4.84206700
9.62671464,4.76073500
9.63338134,4.78011400
9.64004804,4.74440800
9.64671474,4.84191400
9.65338144,4.67406200
9.66004814,4.67818200
9.66671484,4.68901600
9.67338154,4.84633900
9.68004824,4.76287100
9.68671494,4.68657500
9.69338164,4.75020600
9.70004834,4.84023600
9.70671504,4.81017500
9.71338174,4.67513000
9.72004844,4.63515100
9.72671514,4.84283000
9.73338184,4.83153800
9.74004854,4.83428400
9.74671524,4.84084600
9.75338194,4.84115100
9.76004864,4.68627000
9.76671534,4.84115100
9.77338204,4.84023600
9.78004874,4.72136600
9.78671544,4.84466100
9.79338214,4.68184500
9.80004884,4.84099900
9.80671554,4.82955400
9.81338224,4.83611600
9.82004894,4.84237200
9.82671564,4.83336900
9.83338234,4.80971700
9.84004904,4.84374500
9.84671574,4.84344000
9.85338244,4.84542400
9.86004914,4.84176200
9.86671584,4.64552700
9.87338254,4.84557600
9.88004924,4.68947400
9.88671594,4.84603400
9.89338264,4.69420400
9.90004934,4.84298200
9.90671604,4.84115100
9.91338274,4.70671700
9.92004944,4.84328700
9.92671614,4.83779400
9.93338284,4.73799800
9.94004954,4.82207700
9.94671624,4.80407100
9.95338294,4.84191400
9.96004964,4.83718400
9.96671634,4.76043000
9.97338304,4.84176200
9.98004974,4.72029800
9.98671644,4.84221900
9.99338314,4.81032800
10.00004984,4.84054100
10.00671653,4.63744000
10.01338323,4.81597300
10.02004993,4.83092700
10.02671663,4.83809900
10.03338333,4.84099900
10.04005003,4.84633900
10.04671673,4.70595400
10.05338343,4.70152900
10.06005013,4.65605600
10.06671683,4.68306500
10.07338353,4.84496600
10.08005023,4.75402100
10.08671693,4.83581000
10.09338363,4.84496600
10.10005033,4.66506000
10.10671703,4.80330800
10.11338373,4.83596300
10.12005043,4.78606500
10.12671713,4.80452900
10.13338383,4.84221900
10.14005053,4.84542400
10.14671723,4.84038800
10.15338393,4.71541500
10.16005063,4.84176200
10.16671733,4.64598500
10.17338403,4.84023600
10.18005073,4.81795700
10.18671743,4.81215900
10.19338413,4.64293300
10.20005083,4.82665500
10.20671753,4.84328700
10.21338423,4.84115100
10.22005093,4.83703100
10.22671763,4.83916800
10.23338433,4.84130400
10.24005103,4.68855900
10.24671773,4.72365500
10.25338443,4.84572900
10.26005113,4.68596500
10.26671783,4.72960600
10.27338453,4.67177300
10.28005123,4.84221900
10.28671793,4.83855700
10.29338463,4.84252500
10.30005133,4.84344000
10.30671803,4.84084600
10.31338473,4.75310500
10.32005143,4.65590400
10.32671813,4.83733700
10.33338483,4.84237200
10.34005153,4.66368600
10.34671823,4.63530400
10.35338493,4.78164000
10.36005163,4.80040900
10.36671833,4.84328700
10.37338503,4.83947300
10.38005173,4.74028700
10.38671843,4.75661500
10.39338513,4.66719600
10.40005183,4.73204800
10.40671853,4.81307400
10.41338523,4.84283000
10.42005193,4.84283000
10.42671863,4.65056300
10.43338533,4.76973800
10.44005203,4.74334000
10.44671873,4.64644300
10.45338543,4.84237200
10.46005213,4.84084600
10.46671883,4.83687900
10.47338553,4.82650200
10.48005223,4.84420300
10.48671893,4.83611600
10.49338563,4.80712300
10.50005233,4.67909800
10.50671903,4.69283100
10.51338573,4.71892500
10.52005243,4.83932000
10.52671913,4.84466100
10.53338583,4.83199500
10.54005253,4.83840500
10.54671923,4.64003400
10.55338593,4.83932000
10.56005263,4.66231300
10.56671933,4.84283000
10.57338603,4.84344000
10.58005273,4.83581000
10.58671943,4.84435600
10.59338613,4.83993100
10.60005283,4.83748900
10.60671953,4.68550700
10.61338622,4.81490500
10.62005292,4.84191400
10.62671962,4.83779400
10.63338632,4.83779400
10.64005302,4.81917800
10.64671972,4.73769300
10.65338642,4.84130400
10.66005312,4.81017500
10.66671982,4.80025600
10.67338652,4.83077500
10.68005322,4.84374500
10.68671992,4.79018500
10.69338662,4.81780400
10.70005332,4.72304400
10.70672002,4.84420300
10.71338672,4.63286200
10.72005342,4.73525200
10.72672012,4.83184300
10.73338682,4.84328700
10.74005352,4.84557600
10.74672022,4.84450800
10.75338692,4.84237200
10.76005362,4.63988200
10.76672032,4.80666500
10.77338702,4.66338100
10.78005372,4.84344000
10.78672042,4.84450800
10.79338712,4.77568900
10.80005382,4.75554700
10.80672052,4.84405000
10.81338722,4.84130400
10.82005392,4.74150800
10.82672062,4.62736900
10.83338732,4.84237200
10.84005402,4.82360300
10.84672072,4.84252500
10.85338742,4.83840500
10.86005412,4.83504700
10.86672082,4.74654400
10.87338752,4.83001200
10.88005422,4.75173200
10.88672092,4.83062200
10.89338762,4.63393100
10.90005432,4.83840500
10.90672102,4.71373700
10.91338772,4.84359300
10.92005442,4.63667700
10.92672112,4.77629900
10.93338782,4.71938200
10.94005452,4.84313500
10.94672122,4.84679700
10.95338792,4.80666500
10.96005462,4.84252500
10.96672132,4.80941200
10.97338802,4.77019500
10.98005472,4.75463100
10.98672142,4.83993100
10.99338812,4.84283000
11.00005482,4.84328700
11.00672152,4.67925000
11.01338822,4.73998200
11.02005492,4.84603400
11.02672162,4.84221900
11.03338832,4.67772400
11.04005502,4.64964800
11.04672172,4.84283000
11.05338842,4.64873200
11.06005512,4.84481300
11.06672182,4.84603400
11.07338852,4.84191400
11.08005522,4.83855700
11.08672192,4.84252500
11.09338862,4.67619800
11.10005532,4.83489500
11.10672202,4.74883300
11.11338872,4.80605500
11.12005542,4.84572900
11.12672212,4.75936200
11.13338882,4.84252500
11.14005552,4.63271000
11.14672222,4.73525200
11.15338892,4.84542400
11.16005562,4.74944300
11.16672232,4.84115100
11.17338902,4.84176200
11.18005572,4.84206700
11.18672242,4.76393900
11.19338912,4.84115100
11.20005582,4.84496600
11.20672252,4.84527100
11.21338922,4.80346100
11.22005591,4.67635100
11.22672261,4.84176200
11.23338931,4.84115100
11.24005601,4.83550500
11.24672271,4.83535200
11.25338941,4.67879200
11.26005611,4.84099900
11.26672281,4.84252500
11.27338951,4.84084600
11.28005621,4.72731700
11.28672291,4.84115100
11.29338961,4.84588100
11.30005631,4.84603400
