Time,Channel A
(s),(V)

0.00000000,4.72045000
0.00666670,4.71419400
0.01333340,4.71495700
0.02000010,4.71724600
0.02666680,4.71388900
0.03333350,4.71098900
0.04000020,4.71068400
0.04666690,4.71434700
0.05333360,4.71449900
0.06000030,4.71129500
0.06666700,4.71388900
0.07333370,4.71297400
0.08000040,4.71785600
0.08666710,4.71388900
0.09333380,4.70702200
0.10000050,4.71938200
0.10666720,4.71266800
0.11333390,4.71663600
0.12000060,4.71068400
0.12666730,4.71373700
0.13333400,4.71175300
0.14000070,4.71144800
0.14666740,4.71175300
0.15333410,4.70793800
0.16000080,4.71327900
0.16666750,4.70946400
0.17333420,4.70854800
0.18000090,4.70763300
0.18666760,4.70763300
0.19333430,4.70610700
0.20000100,4.70610700
0.20666770,4.70519100
0.21333440,4.70610700
0.22000110,4.70763300
0.22666780,4.70702200
0.23333450,4.70305500
0.24000120,4.70442800
0.24666790,4.70442800
0.25333460,4.69939300
0.26000130,4.70183400
0.26666800,4.70290200
0.27333470,4.69924000
0.28000140,4.70381800
0.28666810,4.70259700
0.29333480,4.69786700
0.30000150,4.70122400
0.30666819,4.69969800
0.31333489,4.69695100
0.32000159,4.70122400
0.32666829,4.70275000
0.33333499,4.69649400
0.34000169,4.69817200
0.34666839,4.70183400
0.35333509,4.69389900
0.36000179,4.70030800
0.36666849,4.70076600
0.37333519,4.69359400
0.38000189,4.68977900
0.38666859,4.71266800
0.39333529,4.69740900
0.40000199,4.69924000
0.40666869,4.69679900
0.41333539,4.69298400
0.42000209,4.70900600
0.42666879,4.70183400
0.43333549,4.69054200
0.44000219,4.70259700
0.44666889,4.69527200
0.45333559,4.70687000
0.46000229,4.70427600
0.46666899,4.70732700
0.47333569,4.76851700
0.48000239,4.10901200
0.48666909,4.71923000
0.49333579,4.13632600
0.50000249,4.77538400
0.50666919,4.66017600
0.51333589,4.03744600
0.52000259,4.82924900
0.52666929,4.33774900
0.53333599,4.83733700
0.54000269,4.56129600
0.54666939,4.20041500
0.55333609,4.76928000
0.56000279,4.58586400
0.56666949,4.72518100
0.57333619,4.79079600
0.58000289,4.61867100
0.58666959,4.83581000
0.59333629,4.67177300
0.60000299,4.73281000
0.60666969,4.84069300
0.61333639,4.70152900
0.62000309,4.81368400
0.62666979,4.70229200
0.63333649,4.69466200
0.64000319,4.83367400
0.64666989,4.70046100
0.65333659,4.77248400
0.66000329,4.72777500
0.66666999,4.71816200
0.67333669,4.75875100
0.68000339,4.73357300
0.68667009,4.73311600
0.69333679,4.73876100
0.70000349,4.70885300
0.70667019,4.73433600
0.71333689,4.72701200
0.72000359,4.72747000
0.72667029,4.73433600
0.73333699,4.72640100
0.74000369,4.74898500
0.74667039,4.71923000
0.75333709,4.72335000
0.76000379,4.72548600
0.76667049,4.73006400
0.77333719,4.72762300
0.78000389,4.71495700
0.78667059,4.72121300
0.79333729,4.72548600
0.80000399,4.72533300
0.80667069,4.72335000
0.81333739,4.71694100
0.82000409,4.72792800
0.82667079,4.72502800
0.83333749,4.72045000
0.84000419,4.72624900
0.84667089,4.72533300
0.85333759,4.72731700
0.86000429,4.72289200
0.86667099,4.71770400
0.87333769,4.72121300
0.88000439,4.72869100
0.88667109,4.72411300
0.89333779,4.72151900
0.90000449,4.72121300
0.90667119,4.73250500
0.91333788,4.72151900
0.92000458,4.72380700
0.92667128,4.72197600
0.93333798,4.72426500
0.94000468,4.73113200
0.94667138,4.71861900
0.95333808,4.72014500
0.96000478,4.72487500
0.96667148,4.72624900
0.97333818,4.72258700
0.98000488,4.71724600
0.98667158,4.73174200
0.99333828,4.72319700
1.00000498,4.72823300
1.00667168,4.72197600
1.01333838,4.72197600
1.02000508,4.72869100
1.02667178,4.72365500
1.03333848,4.72197600
1.04000518,4.72075600
1.04667188,4.72762300
1.05333858,4.72640100
1.06000528,4.72289200
1.06667198,4.72670700
1.07333868,4.72045000
1.08000538,4.72991100
1.08667208,4.72365500
1.09333878,4.72075600
1.10000548,4.72640100
1.10667218,4.72686000
1.11333888,4.72151900
1.12000558,4.72258700
1.12667228,4.72670700
1.13333898,4.72365500
1.14000568,4.72579100
1.14667238,4.72106100
1.15333908,4.71938200
1.16000578,4.72762300
1.16667248,4.72273900
1.17333918,4.72243400
1.18000588,4.72411300
1.18667258,4.72792800
1.19333928,4.72365500
1.20000598,4.72441800
1.20667268,4.72396000
1.21333938,4.72304400
1.22000608,4.72624900
1.22667278,4.72136600
1.23333948,4.72136600
1.24000618,4.72624900
1.24667288,4.72426500
1.25333958,4.72167100
1.26000628,4.72121300
1.26667298,4.72457000
1.27333968,4.72167100
1.28000638,4.72426500
1.28667308,4.72167100
1.29333978,4.72182400
1.30000648,4.72701200
1.30667318,4.72182400
1.31333988,4.72121300
1.32000658,4.72441800
1.32667328,4.72670700
1.33333998,4.72228100
1.34000668,4.72319700
1.34667338,4.72457000
1.35334008,4.72426500
1.36000678,4.72106100
1.36667348,4.72197600
1.37334018,4.71953500
1.38000688,4.72518100
1.38667358,4.72441800
1.39334028,4.71831400
1.40000698,4.72335000
1.40667368,4.72319700
1.41334038,4.72304400
1.42000708,4.72487500
1.42667378,4.72106100
1.43334048,4.72243400
1.44000718,4.72060300
1.44667388,4.72304400
1.45334058,4.72243400
1.46000728,4.71694100
1.46667398,4.72914800
1.47334068,4.72304400
1.48000738,4.72029800
1.48667408,4.73128500
1.49334078,4.71572000
1.50000748,4.73326800
1.50667418,4.72380700
1.51334088,4.71648300
1.52000757,4.73265800
1.52667427,4.71739900
1.53334097,4.72823300
1.54000767,4.71938200
1.54667437,4.72518100
1.55334107,4.73372600
1.56000777,4.72167100
1.56667447,4.73586200
1.57334117,4.72243400
1.58000787,4.72045000
1.58667457,4.73113200
1.59334127,4.71190500
1.60000797,4.72945400
1.60667467,4.72014500
1.61334137,4.71648300
1.62000807,4.72792800
1.62667477,4.71327900
1.63334147,4.72777500
1.64000817,4.71907700
1.64667487,4.72167100
1.65334157,4.72243400
1.66000827,4.71602500
1.66667497,4.72869100
1.67334167,4.71541500
1.68000837,4.72609600
1.68667507,4.72060300
1.69334177,4.71495700
1.70000847,4.72533300
1.70667517,4.71602500
1.71334187,4.72533300
1.72000857,4.71785600
1.72667527,4.71953500
1.73334197,4.72335000
1.74000867,4.71663600
1.74667537,4.72640100
1.75334207,4.71526200
1.76000877,4.72609600
1.76667547,4.72182400
1.77334217,4.71526200
1.78000887,4.72380700
1.78667557,4.71800900
1.79334227,4.72273900
1.80000897,4.71923000
1.80667567,4.71999300
1.81334237,4.72182400
1.82000907,4.71770400
1.82667577,4.72563800
1.83334247,4.71678800
1.84000917,4.72045000
1.84667587,4.71907700
1.85334257,4.71816200
1.86000927,4.72609600
1.86667597,4.72060300
1.87334267,4.71861900
1.88000937,4.72014500
1.88667607,4.72136600
1.89334277,4.72106100
1.90000947,4.71648300
1.90667617,4.72029800
1.91334287,4.71877200
1.92000957,4.71953500
1.92667627,4.72151900
1.93334297,4.71831400
1.94000967,4.72335000
1.94667637,4.71953500
1.95334307,4.71861900
1.96000977,4.72335000
1.96667647,4.72045000
1.97334317,4.71694100
1.98000987,4.71678800
1.98667657,4.72106100
1.99334327,4.72075600
2.00000997,4.71770400
2.00667667,4.72167100
2.01334337,4.71648300
2.02001007,4.72304400
2.02667677,4.72045000
2.03334347,4.71572000
2.04001017,4.72197600
2.04667687,4.72045000
2.05334357,4.72029800
2.06001027,4.71907700
2.06667697,4.72075600
2.07334367,4.71953500
2.08001037,4.71999300
2.08667707,4.72167100
2.09334377,4.72060300
2.10001047,4.72106100
2.10667717,4.72182400
2.11334387,4.71907700
2.12001057,4.72121300
2.12667726,4.72075600
2.13334396,4.72014500
2.14001066,4.72197600
2.14667736,4.71938200
2.15334406,4.72014500
2.16001076,4.72319700
2.16667746,4.72029800
2.17334416,4.71877200
2.18001086,4.72335000
2.18667756,4.72029800
2.19334426,4.71434700
2.20001096,4.71511000
2.20667766,4.71984000
2.21334436,4.71785600
2.22001106,4.72380700
2.22667776,4.72197600
2.23334446,4.71892500
2.24001116,4.72457000
2.24667786,4.71877200
2.25334456,4.71556800
2.26001126,4.71800900
2.26667796,4.72121300
2.27334466,4.71861900
2.28001136,4.72121300
2.28667806,4.71984000
2.29334476,4.71678800
2.30001146,4.72121300
2.30667816,4.72075600
2.31334486,4.71816200
2.32001156,4.72060300
2.32667826,4.72151900
2.33334496,4.71877200
2.34001166,4.72197600
2.34667836,4.72121300
2.35334506,4.71785600
2.36001176,4.72182400
2.36667846,4.72136600
2.37334516,4.71907700
2.38001186,4.71984000
2.38667856,4.71907700
2.39334526,4.71877200
2.40001196,4.72106100
2.40667866,4.71923000
2.41334536,4.71892500
2.42001206,4.72045000
2.42667876,4.72151900
2.43334546,4.72075600
2.44001216,4.71984000
2.44667886,4.72304400
2.45334556,4.71800900
2.46001226,4.72029800
2.46667896,4.72228100
2.47334566,4.71678800
2.48001236,4.71953500
2.48667906,4.72029800
2.49334576,4.71953500
2.50001246,4.72106100
2.50667916,4.71861900
2.51334586,4.71861900
2.52001256,4.72121300
2.52667926,4.72151900
2.53334596,4.71816200
2.54001266,4.72197600
2.54667936,4.72045000
2.55334606,4.71602500
2.56001276,4.72182400
2.56667946,4.72045000
2.57334616,4.71739900
2.58001286,4.71953500
2.58667956,4.71892500
2.59334626,4.71938200
2.60001296,4.71892500
2.60667966,4.71999300
2.61334636,4.71770400
2.62001306,4.72075600
2.62667976,4.72243400
2.63334646,4.71877200
2.64001316,4.72060300
2.64667986,4.72075600
2.65334656,4.71892500
2.66001326,4.71984000
2.66667996,4.71800900
2.67334666,4.71755100
2.68001336,4.72045000
2.68668006,4.71953500
2.69334676,4.71938200
2.70001346,4.72167100
2.70668016,4.72045000
2.71334686,4.71861900
2.72001356,4.72060300
2.72668026,4.71938200
2.73334695,4.71800900
2.74001365,4.71892500
2.74668035,4.71984000
2.75334705,4.71678800
2.76001375,4.71999300
2.76668045,4.72045000
2.77334715,4.71633100
2.78001385,4.72121300
2.78668055,4.71984000
2.79334725,4.71785600
2.80001395,4.72060300
2.80668065,4.72029800
2.81334735,4.71800900
2.82001405,4.72151900
2.82668075,4.72045000
2.83334745,4.71907700
2.84001415,4.72045000
2.84668085,4.72182400
2.85334755,4.71861900
2.86001425,4.72228100
2.86668095,4.71984000
2.87334765,4.71861900
2.88001435,4.72106100
2.88668105,4.72121300
2.89334775,4.71877200
2.90001445,4.72273900
2.90668115,4.72319700
2.91334785,4.71984000
2.92001455,4.72136600
2.92668125,4.72167100
2.93334795,4.72167100
2.94001465,4.72289200
2.94668135,4.72151900
2.95334805,4.71953500
2.96001475,4.72197600
2.96668145,4.72136600
2.97334815,4.72060300
2.98001485,4.72273900
2.98668155,4.72121300
2.99334825,4.72045000
3.00001495,4.72197600
3.00668165,4.72136600
3.01334835,4.72045000
3.02001505,4.72258700
3.02668175,4.72258700
3.03334845,4.71953500
3.04001515,4.72197600
3.04668185,4.72258700
3.05334855,4.72075600
3.06001525,4.72411300
3.06668195,4.72273900
3.07334865,4.71953500
3.08001535,4.72136600
3.08668205,4.72106100
3.09334875,4.71892500
3.10001545,4.72273900
3.10668215,4.72304400
3.11334885,4.72045000
3.12001555,4.72258700
3.12668225,4.72273900
3.13334895,4.72121300
3.14001565,4.72304400
3.14668235,4.72289200
3.15334905,4.72243400
3.16001575,4.72289200
3.16668245,4.72075600
3.17334915,4.72167100
3.18001585,4.72335000
3.18668255,4.72136600
3.19334925,4.72060300
3.20001595,4.72228100
3.20668265,4.72365500
3.21334935,4.72167100
3.22001605,4.72426500
3.22668275,4.72396000
3.23334945,4.72014500
3.24001615,4.72380700
3.24668285,4.72335000
3.25334955,4.72258700
3.26001625,4.72304400
3.26668295,4.72396000
3.27334965,4.72273900
3.28001635,4.72289200
3.28668305,4.72243400
3.29334975,4.72243400
3.30001645,4.72380700
3.30668315,4.72426500
3.31334985,4.72121300
3.32001655,4.72304400
3.32668325,4.72533300
3.33334995,4.72289200
3.34001664,4.72487500
3.34668334,4.72197600
3.35335004,4.72243400
3.36001674,4.72396000
3.36668344,4.72365500
3.37335014,4.72197600
3.38001684,4.72151900
3.38668354,4.72579100
3.39335024,4.72365500
3.40001694,4.72136600
3.40668364,4.72304400
3.41335034,4.72182400
3.42001704,4.72289200
3.42668374,4.72365500
3.43335044,4.72151900
3.44001714,4.72609600
3.44668384,4.72319700
3.45335054,4.72243400
3.46001724,4.72029800
3.46668394,4.72335000
3.47335064,4.72273900
3.48001734,4.72136600
3.48668404,4.72014500
3.49335074,4.72243400
3.50001744,4.72365500
3.50668414,4.72273900
3.51335084,4.72243400
3.52001754,4.72380700
3.52668424,4.72289200
3.53335094,4.72243400
3.54001764,4.72243400
3.54668434,4.72045000
3.55335104,4.72258700
3.56001774,4.72319700
3.56668444,4.72228100
3.57335114,4.72121300
3.58001784,4.72029800
3.58668454,4.72289200
3.59335124,4.72121300
3.60001794,4.72365500
3.60668464,4.72365500
3.61335134,4.71923000
3.62001804,4.72289200
3.62668474,4.71877200
3.63335144,4.72136600
3.64001814,4.72228100
3.64668484,4.72258700
3.65335154,4.72136600
3.66001824,4.71953500
3.66668494,4.72228100
3.67335164,4.71816200
3.68001834,4.72151900
3.68668504,4.72106100
3.69335174,4.71770400
3.70001844,4.72045000
3.70668514,4.72060300
3.71335184,4.72075600
3.72001854,4.72014500
3.72668524,4.72136600
3.73335194,4.72075600
3.74001864,4.71892500
3.74668534,4.72106100
3.75335204,4.71907700
3.76001874,4.71861900
3.76668544,4.72121300
3.77335214,4.71770400
3.78001884,4.71907700
3.78668554,4.72167100
3.79335224,4.71923000
3.80001894,4.71938200
3.80668564,4.72151900
3.81335234,4.72075600
3.82001904,4.72182400
3.82668574,4.72136600
3.83335244,4.72014500
3.84001914,4.72029800
3.84668584,4.72167100
3.85335254,4.71999300
3.86001924,4.71984000
3.86668594,4.72182400
3.87335264,4.72167100
3.88001934,4.72197600
3.88668604,4.72228100
3.89335274,4.72045000
3.90001944,4.72029800
3.90668614,4.72243400
3.91335284,4.71999300
3.92001954,4.71907700
3.92668624,4.70854800
3.93335294,4.72029800
3.94001964,4.72335000
3.94668633,4.72243400
3.95335303,4.72167100
3.96001973,4.72197600
3.96668643,4.72167100
3.97335313,4.72121300
3.98001983,4.71999300
3.98668653,4.72106100
3.99335323,4.71999300
4.00001993,4.71938200
4.00668663,4.72167100
4.01335333,4.72045000
4.02002003,4.72029800
4.02668673,4.72335000
4.03335343,4.72014500
4.04002013,4.71999300
4.04668683,4.72243400
4.05335353,4.72029800
4.06002023,4.72258700
4.06668693,4.72106100
4.07335363,4.71648300
4.08002033,4.72273900
4.08668703,4.72197600
4.09335373,4.71770400
4.10002043,4.71999300
4.10668713,4.72106100
4.11335383,4.71892500
4.12002053,4.71770400
4.12668723,4.72167100
4.13335393,4.71892500
4.14002063,4.71999300
4.14668733,4.72396000
4.15335403,4.71739900
4.16002073,4.72319700
4.16668743,4.72258700
4.17335413,4.71785600
4.18002083,4.72121300
4.18668753,4.72121300
4.19335423,4.71923000
4.20002093,4.71724600
4.20668763,4.71953500
4.21335433,4.72228100
4.22002103,4.71602500
4.22668773,4.72167100
4.23335443,4.71831400
4.24002113,4.72396000
4.24668783,4.72655400
4.25335453,4.71663600
4.26002123,4.71953500
4.26668793,4.72426500
4.27335463,4.71602500
4.28002133,4.72151900
4.28668803,4.71556800
4.29335473,4.72655400
4.30002143,4.72167100
4.30668813,4.72457000
4.31335483,4.72045000
4.32002153,4.71816200
4.32668823,4.73159000
4.33335493,4.71907700
4.34002163,4.72029800
4.34668833,4.71877200
4.35335503,4.71907700
4.36002173,4.72853800
4.36668843,4.71953500
4.37335513,4.71938200
4.38002183,4.72060300
4.38668853,4.72273900
4.39335523,4.72167100
4.40002193,4.71663600
4.40668863,4.72014500
4.41335533,4.72289200
4.42002203,4.71633100
4.42668873,4.71984000
4.43335543,4.71556800
4.44002213,4.72686000
4.44668883,4.72396000
4.45335553,4.71678800
4.46002223,4.72197600
4.46668893,4.72151900
4.47335563,4.72045000
4.48002233,4.71724600
4.48668903,4.72197600
4.49335573,4.72289200
4.50002243,4.72304400
4.50668913,4.72289200
4.51335583,4.71938200
4.52002253,4.72365500
4.52668923,4.72487500
4.53335593,4.72014500
4.54002263,4.71785600
4.54668933,4.71861900
4.55335602,4.72151900
4.56002272,4.71953500
4.56668942,4.72182400
4.57335612,4.71938200
4.58002282,4.72258700
4.58668952,4.72365500
4.59335622,4.71984000
4.60002292,4.71999300
4.60668962,4.72121300
4.61335632,4.72029800
4.62002302,4.71907700
4.62668972,4.71907700
4.63335642,4.72441800
4.64002312,4.72045000
4.64668982,4.72365500
4.65335652,4.71877200
4.66002322,4.71816200
4.66668992,4.72426500
4.67335662,4.71892500
4.68002332,4.71602500
4.68669002,4.72182400
4.69335672,4.71770400
4.70002342,4.72121300
4.70669012,4.72106100
4.71335682,4.72197600
4.72002352,4.72106100
4.72669022,4.72243400
4.73335692,4.71953500
4.74002362,4.71877200
4.74669032,4.72273900
4.75335702,4.71861900
4.76002372,4.71694100
4.76669042,4.72121300
4.77335712,4.71892500
4.78002382,4.72289200
4.78669052,4.72151900
4.79335722,4.71953500
4.80002392,4.72151900
4.80669062,4.72319700
4.81335732,4.71785600
4.82002402,4.71923000
4.82669072,4.71617800
4.83335742,4.71877200
4.84002412,4.72365500
4.84669082,4.72197600
4.85335752,4.71770400
4.86002422,4.72136600
4.86669092,4.72197600
4.87335762,4.72167100
4.88002432,4.72014500
4.88669102,4.71907700
4.89335772,4.71541500
4.90002442,4.72060300
4.90669112,4.72380700
4.91335782,4.71724600
4.92002452,4.72273900
4.92669122,4.72106100
4.93335792,4.72106100
4.94002462,4.72518100
4.94669132,4.71877200
4.95335802,4.71816200
4.96002472,4.71602500
4.96669142,4.71816200
4.97335812,4.71877200
4.98002482,4.71877200
4.98669152,4.72273900
4.99335822,4.71907700
5.00002492,4.71831400
5.00669162,4.72228100
5.01335832,4.71938200
5.02002502,4.72273900
5.02669172,4.72273900
5.03335842,4.71877200
5.04002512,4.72136600
5.04669182,4.72151900
5.05335852,4.71907700
5.06002522,4.72182400
5.06669192,4.72304400
5.07335862,4.71770400
5.08002532,4.72075600
5.08669202,4.72289200
5.09335872,4.71938200
5.10002542,4.72289200
5.10669212,4.72167100
5.11335882,4.71663600
5.12002552,4.72228100
5.12669222,4.72396000
5.13335892,4.72151900
5.14002562,4.71999300
5.14669232,4.72228100
5.15335902,4.72106100
5.16002571,4.72228100
5.16669241,4.72289200
5.17335911,4.71877200
5.18002581,4.72167100
5.18669251,4.72167100
5.19335921,4.71831400
5.20002591,4.72243400
5.20669261,4.72273900
5.21335931,4.71877200
5.22002601,4.72106100
5.22669271,4.72151900
5.23335941,4.71953500
5.24002611,4.72060300
5.24669281,4.72136600
5.25335951,4.71984000
5.26002621,4.71800900
5.26669291,4.72014500
5.27335961,4.71984000
5.28002631,4.71861900
5.28669301,4.72014500
5.29335971,4.71907700
5.30002641,4.72060300
5.30669311,4.72075600
5.31335981,4.71877200
5.32002651,4.72106100
5.32669321,4.72029800
5.33335991,4.71816200
5.34002661,4.72014500
5.34669331,4.72197600
5.35336001,4.72106100
5.36002671,4.71770400
5.36669341,4.72060300
5.37336011,4.72045000
5.38002681,4.71877200
5.38669351,4.71923000
5.39336021,4.71907700
5.40002691,4.72014500
5.40669361,4.72060300
5.41336031,4.71831400
5.42002701,4.72151900
5.42669371,4.72289200
5.43336041,4.71800900
5.44002711,4.71877200
5.44669381,4.72167100
5.45336051,4.72365500
5.46002721,4.72121300
5.46669391,4.71572000
5.47336061,4.71770400
5.48002731,4.72228100
5.48669401,4.72762300
5.49336071,4.71938200
5.50002741,4.71602500
5.50669411,4.71923000
5.51336081,4.72365500
5.52002751,4.72563800
5.52669421,4.72060300
5.53336091,4.71449900
5.54002761,4.71755100
5.54669431,4.72548600
5.55336101,4.72106100
5.56002771,4.72197600
5.56669441,4.72243400
5.57336111,4.72045000
5.58002781,4.72228100
5.58669451,4.71907700
5.59336121,4.72151900
5.60002791,4.72106100
5.60669461,4.72319700
5.61336131,4.71663600
5.62002801,4.72304400
5.62669471,4.72289200
5.63336141,4.72304400
5.64002811,4.72014500
5.64669481,4.72273900
5.65336151,4.72396000
5.66002821,4.72762300
5.66669491,4.72136600
5.67336161,4.71633100
5.68002831,4.71999300
5.68669501,4.72426500
5.69336171,4.72273900
5.70002841,4.72045000
5.70669511,4.72380700
5.71336181,4.72487500
5.72002851,4.72075600
5.72669521,4.72197600
5.73336191,4.72151900
5.74002861,4.72579100
5.74669531,4.72151900
5.75336201,4.71678800
5.76002871,4.72273900
5.76669540,4.72518100
5.77336210,4.72426500
5.78002880,4.72258700
5.78669550,4.72197600
5.79336220,4.72426500
5.80002890,4.72609600
5.80669560,4.72182400
5.81336230,4.71861900
5.82002900,4.72273900
5.82669570,4.72319700
5.83336240,4.72197600
5.84002910,4.72426500
5.84669580,4.72396000
5.85336250,4.72502800
5.86002920,4.72441800
5.86669590,4.72243400
5.87336260,4.72151900
5.88002930,4.72426500
5.88669600,4.72396000
5.89336270,4.71663600
5.90002940,4.72365500
5.90669610,4.72548600
5.91336280,4.72365500
5.92002950,4.72487500
5.92669620,4.72304400
5.93336290,4.72258700
5.94002960,4.72258700
5.94669630,4.72243400
5.95336300,4.71785600
5.96002970,4.72411300
5.96669640,4.72380700
5.97336310,4.71800900
5.98002980,4.72243400
5.98669650,4.72289200
5.99336320,4.72075600
6.00002990,4.72273900
6.00669660,4.72243400
6.01336330,4.71953500
6.02003000,4.72411300
6.02669670,4.72167100
6.03336340,4.71923000
6.04003010,4.71984000
6.04669680,4.72365500
6.05336350,4.71984000
6.06003020,4.72167100
6.06669690,4.72289200
6.07336360,4.72060300
6.08003030,4.71831400
6.08669700,4.72060300
6.09336370,4.71663600
6.10003040,4.72197600
6.10669710,4.72441800
6.11336380,4.71831400
6.12003050,4.72136600
6.12669720,4.72151900
6.13336390,4.71984000
6.14003060,4.72258700
6.14669730,4.72182400
6.15336400,4.72029800
6.16003070,4.71953500
6.16669740,4.72121300
6.17336410,4.71877200
6.18003080,4.72060300
6.18669750,4.72136600
6.19336420,4.72106100
6.20003090,4.72258700
6.20669760,4.72243400
6.21336430,4.71861900
6.22003100,4.72258700
6.22669770,4.71999300
6.23336440,4.71816200
6.24003110,4.71938200
6.24669780,4.72319700
6.25336450,4.71938200
6.26003120,4.71816200
6.26669790,4.72182400
6.27336460,4.71861900
6.28003130,4.72106100
6.28669800,4.71770400
6.29336470,4.72045000
6.30003140,4.71999300
6.30669810,4.71892500
6.31336480,4.71770400
6.32003150,4.72106100
6.32669820,4.72380700
6.33336490,4.71938200
6.34003160,4.72029800
6.34669830,4.72075600
6.35336500,4.72045000
6.36003170,4.72243400
6.36669839,4.72289200
6.37336509,4.72014500
6.38003179,4.71831400
6.38669849,4.72258700
6.39336519,4.71953500
6.40003189,4.72060300
6.40669859,4.72289200
6.41336529,4.72106100
6.42003199,4.72106100
6.42669869,4.72258700
6.43336539,4.72029800
6.44003209,4.72075600
6.44669879,4.72167100
6.45336549,4.72029800
6.46003219,4.71739900
6.46669889,4.72411300
6.47336559,4.71984000
6.48003229,4.72380700
6.48669899,4.72365500
6.49336569,4.72319700
6.50003239,4.72289200
6.50669909,4.72335000
6.51336579,4.72319700
6.52003249,4.72182400
6.52669919,4.72762300
6.53336589,4.72380700
6.54003259,4.72457000
6.54669929,4.72380700
6.55336599,4.72365500
6.56003269,4.72106100
6.56669939,4.72441800
6.57336609,4.72518100
6.58003279,4.72136600
6.58669949,4.72335000
6.59336619,4.72273900
6.60003289,4.72533300
6.60669959,4.72701200
6.61336629,4.72106100
6.62003299,4.72640100
6.62669969,4.72533300
6.63336639,4.72579100
6.64003309,4.72533300
6.64669979,4.72380700
6.65336649,4.72792800
6.66003319,4.72289200
6.66669989,4.72670700
6.67336659,4.72304400
6.68003329,4.72518100
6.68669999,4.72808000
6.69336669,4.72060300
6.70003339,4.72670700
6.70670009,4.72426500
6.71336679,4.72441800
6.72003349,4.72762300
6.72670019,4.72273900
6.73336689,4.72502800
6.74003359,4.72197600
6.74670029,4.72441800
6.75336699,4.72365500
6.76003369,4.72701200
6.76670039,4.72930100
6.77336709,4.72136600
6.78003379,4.71327900
6.78670049,4.72075600
6.79336719,4.72258700
6.80003389,4.73632000
6.80670059,4.72701200
6.81336729,4.70046100
6.82003399,4.72548600
6.82670069,4.65041100
6.83336739,4.60478500
6.84003409,4.65285200
6.84670079,4.84374500
6.85336749,4.83123300
6.86003419,4.31836900
6.86670089,4.83901500
6.87336759,4.67162100
6.88003429,4.59379900
6.88670099,4.79033800
6.89336769,4.41740200
6.90003439,4.76668600
6.90670109,4.69191600
6.91336779,4.42564200
6.92003449,4.84160900
6.92670119,4.79674700
6.93336789,4.75692000
6.94003459,4.78789600
6.94670129,4.75692000
6.95336799,4.73357300
6.96003469,4.72945400
6.96670139,4.83794700
6.97336808,4.75753000
6.98003478,4.77874100
6.98670148,4.77980900
6.99336818,4.79171100
7.00003488,4.78057200
7.00670158,4.78026700
7.01336828,4.76943300
7.02003498,4.78148700
7.02670168,4.78316600
7.03336838,4.76592300
7.04003508,4.77721500
7.04670178,4.78286100
7.05336848,4.78377600
7.06003518,4.78316600
7.06670188,4.76897500
7.07336858,4.78576000
7.08003528,4.78316600
7.08670198,4.77874100
7.09336868,4.77172100
7.10003538,4.77294200
7.10670208,4.78438700
7.11336878,4.77828300
7.12003548,4.77202700
7.12670218,4.77843600
7.13336888,4.77950400
7.14003558,4.78164000
7.14670228,4.77309500
7.15336898,4.77294200
7.16003568,4.78041900
7.16670238,4.77584200
7.17336908,4.77034800
7.18003578,4.77141600
7.18670248,4.78148700
7.19336918,4.78087700
7.20003588,4.77462100
7.20670258,4.77324700
7.21336928,4.77477400
7.22003598,4.78270800
7.22670268,4.77309500
7.23336938,4.76882200
7.24003608,4.77401100
7.24670278,4.77645200
7.25336948,4.77355200
7.26003618,4.77004300
7.26670288,4.77553700
7.27336958,4.78133500
7.28003628,4.77782500
7.28670298,4.77385800
7.29336968,4.77202700
7.30003638,4.77813100
7.30670308,4.77721500
7.31336978,4.76744900
7.32003648,4.76943300
7.32670318,4.77584200
7.33336988,4.77767300
7.34003658,4.77248400
7.34670328,4.77340000
7.35336998,4.77568900
7.36003668,4.77721500
7.36670338,4.77324700
7.37337008,4.76714400
7.38003678,4.77324700
7.38670348,4.77691000
7.39337018,4.76897500
7.40003688,4.76973800
7.40670358,4.77278900
7.41337028,4.77904600
7.42003698,4.77797800
7.42670368,4.77202700
7.43337038,4.77416300
7.44003708,4.77965600
7.44670378,4.77050100
7.45337048,4.76882200
7.46003718,4.77553700
7.46670388,4.78164000
7.47337058,4.77294200
7.48003728,4.76760100
7.48670398,4.77340000
7.49337068,4.78637000
7.50003738,4.78072500
7.50670408,4.76546500
7.51337078,4.76882200
7.52003748,4.77797800
7.52670418,4.78286100
7.53337088,4.76958500
7.54003758,4.76470200
7.54670428,4.77919900
7.55337098,4.77507900
7.56003768,4.77507900
7.56670438,4.77004300
7.57337108,4.77385800
7.58003777,4.77797800
7.58670447,4.77004300
7.59337117,4.76912700
7.60003787,4.77385800
7.60670457,4.77629900
7.61337127,4.77294200
7.62003797,4.76790700
7.62670467,4.77538400
7.63337137,4.78148700
7.64003807,4.77568900
7.64670477,4.77019500
7.65337147,4.76592300
7.66003817,4.77797800
7.66670487,4.77645200
7.67337157,4.76775400
7.68003827,4.77095800
7.68670497,4.77126400
7.69337167,4.77599400
7.70003837,4.77156900
7.70670507,4.77584200
7.71337177,4.77507900
7.72003847,4.77568900
7.72670517,4.76958500
7.73337187,4.76683900
7.74003857,4.77462100
7.74670527,4.78255600
7.75337197,4.76882200
7.76003867,4.76882200
7.76670537,4.76928000
7.77337207,4.77813100
7.78003877,4.77980900
7.78670547,4.76683900
7.79337217,4.77050100
7.80003887,4.77721500
7.80670557,4.77507900
7.81337227,4.77095800
7.82003897,4.77324700
7.82670567,4.77675700
7.83337237,4.77462100
7.84003907,4.77217900
7.84670577,4.77202700
7.85337247,4.77355200
7.86003917,4.77843600
7.86670587,4.76943300
7.87337257,4.76622800
7.88003927,4.77446800
7.88670597,4.77599400
7.89337267,4.77156900
7.90003937,4.76805900
7.90670607,4.77172100
7.91337277,4.77538400
7.92003947,4.77355200
7.92670617,4.77324700
7.93337287,4.77248400
7.94003957,4.77507900
7.94670627,4.77584200
7.95337297,4.76622800
7.96003967,4.77172100
7.96670637,4.77584200
7.97337307,4.77095800
7.98003977,4.77080600
7.98670647,4.77156900
7.99337317,4.77599400
8.00003987,4.77553700
8.00670657,4.77385800
8.01337327,4.76775400
8.02003997,4.77172100
8.02670667,4.77507900
8.03337337,4.76943300
8.04004007,4.77050100
8.04670677,4.77340000
8.05337347,4.77446800
8.06004017,4.77385800
8.06670687,4.77660500
8.07337357,4.77721500
8.08004027,4.77584200
8.08670697,4.76973800
8.09337367,4.76683900
8.10004037,4.77965600
8.10670707,4.77980900
8.11337377,4.77034800
8.12004047,4.76531300
8.12670717,4.77019500
8.13337387,4.78164000
8.14004057,4.77752000
8.14670727,4.76683900
8.15337397,4.76805900
8.16004067,4.77462100
8.16670737,4.77568900
8.17337407,4.77263700
8.18004077,4.77019500
8.18670746,4.77675700
8.19337416,4.77523100
8.20004086,4.77446800
8.20670756,4.77660500
8.21337426,4.77248400
8.22004096,4.77919900
8.22670766,4.77202700
8.23337436,4.76973800
8.24004106,4.77721500
8.24670776,4.77309500
8.25337446,4.77538400
8.26004116,4.77217900
8.26670786,4.77309500
8.27337456,4.77767300
8.28004126,4.77278900
8.28670796,4.78026700
8.29337466,4.76928000
8.30004136,4.77752000
8.30670806,4.77462100
8.31337476,4.76546500
8.32004146,4.77935100
8.32670816,4.77278900
8.33337486,4.77584200
8.34004156,4.77431600
8.34670826,4.76928000
8.35337496,4.77874100
8.36004166,4.77462100
8.36670836,4.77309500
8.37337506,4.76821200
8.38004176,4.77462100
8.38670846,4.77599400
8.39337516,4.77324700
8.40004186,4.77019500
8.40670856,4.77187400
8.41337526,4.77507900
8.42004196,4.77629900
8.42670866,4.77324700
8.43337536,4.77217900
8.44004206,4.77309500
8.44670876,4.76897500
8.45337546,4.76973800
8.46004216,4.77355200
8.46670886,4.77278900
8.47337556,4.77294200
8.48004226,4.77019500
8.48670896,4.76928000
8.49337566,4.77782500
8.50004236,4.77401100
8.50670906,4.77217900
8.51337576,4.77187400
8.52004246,4.77156900
8.52670916,4.77706200
8.53337586,4.76897500
8.54004256,4.77431600
8.54670926,4.77477400
8.55337596,4.77553700
8.56004266,4.77446800
8.56670936,4.77217900
8.57337606,4.77416300
8.58004276,4.77355200
8.58670946,4.77309500
8.59337616,4.77019500
8.60004286,4.77172100
8.60670956,4.77553700
8.61337626,4.77126400
8.62004296,4.77141600
8.62670966,4.77278900
8.63337636,4.77126400
8.64004306,4.77675700
8.64670976,4.77172100
8.65337646,4.77172100
8.66004316,4.77416300
8.66670986,4.77202700
8.67337656,4.77187400
8.68004326,4.77324700
8.68670996,4.77187400
8.69337666,4.77065300
8.70004336,4.77309500
8.70671006,4.77294200
8.71337676,4.77355200
8.72004346,4.77599400
8.72671016,4.77187400
8.73337686,4.76943300
8.74004356,4.77217900
8.74671026,4.77431600
8.75337696,4.77340000
8.76004366,4.77141600
8.76671036,4.77004300
8.77337706,4.77156900
8.78004376,4.77752000
8.78671046,4.77584200
8.79337715,4.76805900
8.80004385,4.77050100
8.80671055,4.77294200
8.81337725,4.77217900
8.82004395,4.77324700
8.82671065,4.77004300
8.83337735,4.77004300
8.84004405,4.77431600
8.84671075,4.77019500
8.85337745,4.77462100
8.86004415,4.76653300
8.86671085,4.77843600
8.87337755,4.77217900
8.88004425,4.77065300
8.88671095,4.77813100
8.89337765,4.77141600
8.90004435,4.77691000
8.90671105,4.77797800
8.91337775,4.77050100
8.92004445,4.77416300
8.92671115,4.77309500
8.93337785,4.77248400
8.94004455,4.76882200
8.94671125,4.77416300
8.95337795,4.77523100
8.96004465,4.77355200
8.96671135,4.77874100
8.97337805,4.76775400
8.98004475,4.77462100
8.98671145,4.77416300
8.99337815,4.77050100
9.00004485,4.77584200
9.00671155,4.77065300
9.01337825,4.77187400
9.02004495,4.77645200
9.02671165,4.77217900
9.03337835,4.77401100
9.04004505,4.77263700
9.04671175,4.77355200
9.05337845,4.77065300
9.06004515,4.77080600
9.06671185,4.77385800
9.07337855,4.77263700
9.08004525,4.77095800
9.08671195,4.77629900
9.09337865,4.77202700
9.10004535,4.77462100
9.10671205,4.77538400
9.11337875,4.77034800
9.12004545,4.77278900
9.12671215,4.77248400
9.13337885,4.76928000
9.14004555,4.77416300
9.14671225,4.77477400
9.15337895,4.77278900
9.16004565,4.77294200
9.16671235,4.77202700
9.17337905,4.77416300
9.18004575,4.77355200
9.18671245,4.77416300
9.19337915,4.77034800
9.20004585,4.77034800
9.20671255,4.77629900
9.21337925,4.77156900
9.22004595,4.77141600
9.22671265,4.77416300
9.23337935,4.77034800
9.24004605,4.77935100
9.24671275,4.77126400
9.25337945,4.77568900
9.26004615,4.77568900
9.26671285,4.77019500
9.27337955,4.77568900
9.28004625,4.77217900
9.28671295,4.77675700
9.29337965,4.77446800
9.30004635,4.77004300
9.30671305,4.77599400
9.31337975,4.77462100
9.32004645,4.77553700
9.32671315,4.77278900
9.33337985,4.77065300
9.34004655,4.77507900
9.34671325,4.77584200
9.35337995,4.77309500
9.36004665,4.77263700
9.36671335,4.77294200
9.37338005,4.77584200
9.38004675,4.77263700
9.38671345,4.77523100
9.39338015,4.77187400
9.40004684,4.77156900
9.40671354,4.77294200
9.41338024,4.77126400
9.42004694,4.77202700
9.42671364,4.77477400
9.43338034,4.77141600
9.44004704,4.77126400
9.44671374,4.77187400
9.45338044,4.77172100
9.46004714,4.77202700
9.46671384,4.77004300
9.47338054,4.76714400
9.48004724,4.77126400
9.48671394,4.77141600
9.49338064,4.76973800
9.50004734,4.76943300
9.50671404,4.77446800
9.51338074,4.77217900
9.52004744,4.77340000
9.52671414,4.77355200
9.53338084,4.77278900
9.54004754,4.77431600
9.54671424,4.76790700
9.55338094,4.77019500
9.56004764,4.76714400
9.56671434,4.77675700
9.57338104,4.77156900
9.58004774,4.77431600
9.58671444,4.77523100
9.59338114,4.76897500
9.60004784,4.77813100
9.60671454,4.77004300
9.61338124,4.77156900
9.62004794,4.77752000
9.62671464,4.76973800
9.63338134,4.77446800
9.64004804,4.77141600
9.64671474,4.77401100
9.65338144,4.77904600
9.66004814,4.77248400
9.66671484,4.77782500
9.67338154,4.77050100
9.68004824,4.77431600
9.68671494,4.77324700
9.69338164,4.76958500
9.70004834,4.77355200
9.70671504,4.77034800
9.71338174,4.77401100
9.72004844,4.77202700
9.72671514,4.77263700
9.73338184,4.77599400
9.74004854,4.77004300
9.74671524,4.77477400
9.75338194,4.76882200
9.76004864,4.77095800
9.76671534,4.77324700
9.77338204,4.76943300
9.78004874,4.77156900
9.78671544,4.77294200
9.79338214,4.76943300
9.80004884,4.77507900
9.80671554,4.77202700
9.81338224,4.77340000
9.82004894,4.77278900
9.82671564,4.77340000
9.83338234,4.77248400
9.84004904,4.77248400
9.84671574,4.77401100
9.85338244,4.77126400
9.86004914,4.77507900
9.86671584,4.77355200
9.87338254,4.77004300
9.88004924,4.77675700
9.88671594,4.77034800
9.89338264,4.77156900
9.90004934,4.77202700
9.90671604,4.76882200
9.91338274,4.77538400
9.92004944,4.77126400
9.92671614,4.77156900
9.93338284,4.77431600
9.94004954,4.77019500
9.94671624,4.77355200
9.95338294,4.77065300
9.96004964,4.77187400
9.96671634,4.77080600
9.97338304,4.77202700
9.98004974,4.77187400
9.98671644,4.77080600
9.99338314,4.77355200
10.00004984,4.77034800
10.00671653,4.77080600
10.01338323,4.77309500
10.02004993,4.77065300
10.02671663,4.77340000
10.03338333,4.76973800
10.04005003,4.77141600
10.04671673,4.77477400
10.05338343,4.77126400
10.06005013,4.77202700
10.06671683,4.77385800
10.07338353,4.77355200
10.08005023,4.77446800
10.08671693,4.77385800
10.09338363,4.77416300
10.10005033,4.77324700
10.10671703,4.77477400
10.11338373,4.77416300
10.12005043,4.77217900
10.12671713,4.77477400
10.13338383,4.77141600
10.14005053,4.77477400
10.14671723,4.77599400
10.15338393,4.77034800
10.16005063,4.77568900
10.16671733,4.77294200
10.17338403,4.77172100
10.18005073,4.77309500
10.18671743,4.77248400
10.19338413,4.77248400
10.20005083,4.77126400
10.20671753,4.77202700
10.21338423,4.77660500
10.22005093,4.77080600
10.22671763,4.77095800
10.23338433,4.77095800
10.24005103,4.77324700
10.24671773,4.77553700
10.25338443,4.76958500
10.26005113,4.77294200
10.26671783,4.77278900
10.27338453,4.77095800
10.28005123,4.77278900
10.28671793,4.77095800
10.29338463,4.77278900
10.30005133,4.77401100
10.30671803,4.77401100
10.31338473,4.77401100
10.32005143,4.77248400
10.32671813,4.77385800
10.33338483,4.77202700
10.34005153,4.77446800
10.34671823,4.77523100
10.35338493,4.77568900
10.36005163,4.77691000
10.36671833,4.77248400
10.37338503,4.77202700
10.38005173,4.77416300
10.38671843,4.77172100
10.39338513,4.77202700
10.40005183,4.77340000
10.40671853,4.77507900
10.41338523,4.77553700
10.42005193,4.77080600
10.42671863,4.77187400
10.43338533,4.77202700
10.44005203,4.77294200
10.44671873,4.77538400
10.45338543,4.77294200
10.46005213,4.77553700
10.46671883,4.77599400
10.47338553,4.77263700
10.48005223,4.77523100
10.48671893,4.77355200
10.49338563,4.77462100
10.50005233,4.77507900
10.50671903,4.77324700
10.51338573,4.77156900
10.52005243,4.77553700
10.52671913,4.77568900
10.53338583,4.77431600
10.54005253,4.77507900
10.54671923,4.77248400
10.55338593,4.77660500
10.56005263,4.77416300
10.56671933,4.77340000
10.57338603,4.77477400
10.58005273,4.77309500
10.58671943,4.77523100
10.59338613,4.77172100
10.60005283,4.77278900
10.60671953,4.77477400
10.61338622,4.77294200
10.62005292,4.77248400
10.62671962,4.77446800
10.63338632,4.77507900
10.64005302,4.77477400
10.64671972,4.77309500
10.65338642,4.77431600
10.66005312,4.77248400
10.66671982,4.77629900
10.67338652,4.77584200
10.68005322,4.76805900
10.68671992,4.77553700
10.69338662,4.76928000
10.70005332,4.77462100
10.70672002,4.77523100
10.71338672,4.76836400
10.72005342,4.77828300
10.72672012,4.76882200
10.73338682,4.76775400
10.74005352,4.77187400
10.74672022,4.77080600
10.75338692,4.77385800
10.76005362,4.76760100
10.76672032,4.77568900
10.77338702,4.77401100
10.78005372,4.76683900
10.78672042,4.77568900
10.79338712,4.76592300
10.80005382,4.77919900
10.80672052,4.77706200
10.81338722,4.76897500
10.82005392,4.77919900
10.82672062,4.77446800
10.83338732,4.77584200
10.84005402,4.77507900
10.84672072,4.77355200
10.85338742,4.77507900
10.86005412,4.77065300
10.86672082,4.77172100
10.87338752,4.77507900
10.88005422,4.77217900
10.88672092,4.77568900
10.89338762,4.77568900
10.90005432,4.77721500
10.90672102,4.78026700
10.91338772,4.77141600
10.92005442,4.77782500
10.92672112,4.77675700
10.93338782,4.77263700
10.94005452,4.77797800
10.94672122,4.77126400
10.95338792,4.77660500
10.96005462,4.77629900
10.96672132,4.77477400
10.97338802,4.77843600
10.98005472,4.77019500
10.98672142,4.77523100
10.99338812,4.77538400
11.00005482,4.77340000
11.00672152,4.77645200
11.01338822,4.76851700
11.02005492,4.77706200
11.02672162,4.77797800
11.03338832,4.77217900
11.04005502,4.77629900
11.04672172,4.77477400
11.05338842,4.77462100
11.06005512,4.77752000
11.06672182,4.77568900
11.07338852,4.77584200
11.08005522,4.77416300
11.08672192,4.77660500
11.09338862,4.77477400
11.10005532,4.77660500
11.10672202,4.77691000
11.11338872,4.77248400
11.12005542,4.77843600
11.12672212,4.77660500
11.13338882,4.77477400
11.14005552,4.77965600
11.14672222,4.77538400
11.15338892,4.77431600
11.16005562,4.77645200
11.16672232,4.77553700
11.17338902,4.77385800
11.18005572,4.77431600
11.18672242,4.77797800
11.19338912,4.77523100
11.20005582,4.77553700
11.20672252,4.77767300
11.21338922,4.77385800
11.22005591,4.77752000
11.22672261,4.77584200
11.23338931,4.77416300
11.24005601,4.77797800
11.24672271,4.77767300
11.25338941,4.77660500
11.26005611,4.77462100
11.26672281,4.77874100
11.27338951,4.77797800
11.28005621,4.77553700
11.28672291,4.77813100
11.29338961,4.77034800
11.30005631,4.77691000
11.30672301,4.77782500
11.31338971,4.77324700
11.32005641,4.77675700
11.32672311,4.77309500
11.33338981,4.77645200
11.34005651,4.77706200
11.34672321,4.77797800
11.35338991,4.77660500
11.36005661,4.77477400
11.36672331,4.77675700
11.37339001,4.77248400
11.38005671,4.77507900
11.38672341,4.77477400
11.39339011,4.77797800
11.40005681,4.77080600
11.40672351,4.77691000
11.41339021,4.77446800
11.42005691,4.77141600
11.42672361,4.77584200
11.43339031,4.76653300
11.44005701,4.77645200
11.44672371,4.77462100
11.45339041,4.76500700
11.46005711,4.77675700
11.46672381,4.77172100
11.47339051,4.77950400
11.48005721,4.76943300
11.48672391,4.77034800
11.49339061,4.77767300
11.50005731,4.77095800
11.50672401,4.78011400
11.51339071,4.76577000
11.52005741,4.77172100
11.52672411,4.78057200
11.53339081,4.77202700
11.54005751,4.77660500
11.54672421,4.76561800
11.55339091,4.77172100
11.56005761,4.77050100
11.56672431,4.77416300
11.57339101,4.77462100
11.58005771,4.76744900
11.58672441,4.77752000
11.59339111,4.76638100
11.60005781,4.77050100
11.60672451,4.77507900
11.61339121,4.76638100
11.62005791,4.77797800
11.62672461,4.77126400
11.63339131,4.77889300
11.64005801,4.77721500
11.64672471,4.77584200
11.65339141,4.78026700
11.66005811,4.76958500
11.66672481,4.78316600
11.67339151,4.77217900
11.68005821,4.78011400
11.68672491,4.77691000
11.69339161,4.76805900
11.70005831,4.78133500
11.70672501,4.77431600
11.71339171,4.77950400
11.72005841,4.77813100
11.72672511,4.77248400
