Time,Channel A
(s),(V)

0.00000000,3.71059300
0.00666670,3.70647300
0.01333340,3.71257700
0.02000010,3.70632000
0.02666680,3.71013500
0.03333350,3.71135600
0.04000020,3.71166100
0.04666690,3.71334000
0.05333360,3.70708300
0.06000030,3.71272900
0.06666700,3.71684900
0.07333370,3.70174300
0.08000040,3.71669700
0.08666710,3.69975900
0.09333380,3.70754100
0.10000050,3.71654400
0.10666720,3.70159000
0.11333390,3.71547600
0.12000060,3.70662500
0.12666730,3.70784600
0.13333400,3.71334000
0.14000070,3.70616800
0.14666740,3.71166100
0.15333410,3.69975900
0.16000080,3.71395000
0.16666750,3.71501800
0.17333420,3.70510000
0.18000090,3.71868000
0.18666760,3.70647300
0.19333430,3.70662500
0.20000100,3.71746000
0.20666770,3.69960600
0.21333440,3.71456000
0.22000110,3.70830400
0.22666780,3.70204800
0.23333450,3.71227100
0.24000120,3.71150900
0.24666790,3.71608600
0.25333460,3.71303400
0.26000130,3.71059300
0.26666800,3.71501800
0.27333470,3.70204800
0.28000140,3.71639200
0.28666810,3.70555700
0.29333480,3.70754100
0.30000150,3.70906700
0.30666819,3.70494700
0.31333489,3.71395000
0.32000159,3.71379700
0.32666829,3.71761200
0.33333499,3.70937200
0.34000169,3.70891500
0.34666839,3.70555700
0.35333509,3.70799900
0.36000179,3.70540500
0.36666849,3.70830400
0.37333519,3.70281100
0.38000189,3.69518100
0.38666859,3.71791700
0.39333529,3.70860900
0.40000199,3.70677800
0.40666869,3.73088800
0.41333539,3.68770400
0.42000209,3.72264800
0.42666879,3.69457100
0.43333549,3.71013500
0.44000219,3.70922000
0.44666889,3.68526300
0.45333559,3.72570000
0.46000229,3.68800900
0.46666899,3.71868000
0.47333569,3.71761200
0.48000239,3.70128500
0.48666909,3.72371600
0.49333579,3.69609700
0.50000249,3.71471300
0.50666919,3.70128500
0.51333589,3.70143700
0.52000259,3.71181400
0.52666929,3.69731700
0.53333599,3.71959600
0.54000269,3.70754100
0.54666939,3.71654400
0.55333609,3.71593400
0.56000279,3.70296300
0.56666949,3.71181400
0.57333619,3.70540500
0.58000289,3.70281100
0.58666959,3.70326900
0.59333629,3.70403100
0.60000299,3.71272900
0.60666969,3.70372600
0.61333639,3.72035900
0.62000309,3.71211900
0.62666979,3.70281100
0.63333649,3.72066400
0.64000319,3.69609700
0.64666989,3.70616800
0.65333659,3.71425500
0.66000329,3.69472300
0.66666999,3.71013500
0.67333669,3.70937200
0.68000339,3.71349200
0.68667009,3.71608600
0.69333679,3.71166100
0.70000349,3.71135600
0.70667019,3.70143700
0.71333689,3.71257700
0.72000359,3.70738900
0.72667029,3.69930100
0.73333699,3.71547600
0.74000369,3.70357400
0.74667039,3.70525200
0.75333709,3.71746000
0.76000379,3.71395000
0.76667049,3.71120300
0.77333719,3.71227100
0.78000389,3.70876200
0.78667059,3.70372600
0.79333729,3.70418400
0.80000399,3.71654400
0.80667069,3.69701200
0.81333739,3.71211900
0.82000409,3.71547600
0.82667079,3.69197700
0.83333749,3.73287200
0.84000419,3.69289200
0.84667089,3.71562900
0.85333759,3.71028800
0.86000429,3.68846700
0.86667099,3.72478400
0.87333769,3.68236300
0.88000439,3.72524200
0.88667109,3.70098000
0.89333779,3.69747000
0.90000449,3.73027700
0.90667119,3.68785700
0.91333788,3.72264800
0.92000458,3.71532300
0.92667128,3.69167200
0.93333798,3.71608600
0.94000468,3.70113200
0.94667138,3.70632000
0.95333808,3.71303400
0.96000478,3.71059300
0.96667148,3.70601500
0.97333818,3.71166100
0.98000488,3.71227100
0.98667158,3.71593400
0.99333828,3.70860900
1.00000498,3.71044000
1.00667168,3.71089800
1.01333838,3.69869100
1.02000508,3.72539400
1.02667178,3.70586300
1.03333848,3.70723600
1.04000518,3.70418400
1.04667188,3.70540500
1.05333858,3.71990100
1.06000528,3.72798800
1.06667198,3.69960600
1.07333868,3.70159000
1.08000538,3.70784600
1.08667208,3.69762300
1.09333878,3.73226100
1.10000548,3.70586300
1.10667218,3.70204800
1.11333888,3.70983000
1.12000558,3.68846700
1.12667228,3.72615700
1.13333898,3.70265800
1.14000568,3.71272900
1.14667238,3.72753100
1.15333908,3.70601500
1.16000578,3.72753100
1.16667248,3.71974800
1.17333918,3.70632000
1.18000588,3.71974800
1.18667258,3.69365500
1.19333928,3.70418400
1.20000598,3.70372600
1.20667268,3.70662500
1.21333938,3.71532300
1.22000608,3.72402100
1.22667278,3.71715500
1.23333948,3.72676800
1.24000618,3.71303400
1.24667288,3.71425500
1.25333958,3.70860900
1.26000628,3.70494700
1.26667298,3.71242400
1.27333968,3.71089800
1.28000638,3.71517100
1.28667308,3.73165100
1.29333978,3.70525200
1.30000648,3.73699100
1.30667318,3.71807000
1.31333988,3.70342100
1.32000658,3.73760200
1.32667328,3.67580200
1.33333998,3.72554700
1.34000668,3.71364500
1.34667338,3.67534400
1.35334008,3.76888300
1.36000678,3.65810100
1.36667348,3.75667600
1.37334018,3.70937200
1.38000688,3.68602600
1.38667358,3.75454000
1.39334028,3.66649400
1.40000698,3.73271900
1.40667368,3.70662500
1.41334038,3.69151900
1.42000708,3.73806000
1.42667378,3.68984000
1.43334048,3.73546600
1.44000718,3.71486500
1.44667388,3.70250600
1.45334058,3.74111200
1.46000728,3.67946400
1.46667398,3.73012500
1.47334068,3.70036900
1.48000738,3.70662500
1.48667408,3.72478400
1.49334078,3.70159000
1.50000748,3.73043000
1.50667418,3.71242400
1.51334088,3.72142700
1.52000757,3.72341100
1.52667427,3.70250600
1.53334097,3.72508900
1.54000767,3.70250600
1.54667437,3.71532300
1.55334107,3.72173200
1.56000777,3.70510000
1.56667447,3.71807000
1.57334117,3.72035900
1.58000787,3.70738900
1.58667457,3.72631000
1.59334127,3.71623900
1.60000797,3.70433700
1.60667467,3.72158000
1.61334137,3.69975900
1.62000807,3.72310600
1.62667477,3.71257700
1.63334147,3.71013500
1.64000817,3.72875100
1.64667487,3.69747000
1.65334157,3.72661500
1.66000827,3.72341100
1.66667497,3.67641200
1.67334167,3.76232200
1.68000837,3.65245500
1.68667507,3.74691000
1.69334177,3.69792800
1.70000847,3.69869100
1.70667517,3.73424500
1.71334187,3.69930100
1.72000857,3.71623900
1.72667527,3.73394000
1.73334197,3.67137700
1.74000867,3.75392900
1.74667537,3.67198700
1.75334207,3.73287200
1.76000877,3.71990100
1.76667547,3.67900600
1.77334217,3.74263700
1.78000887,3.69624900
1.78667557,3.70922000
1.79334227,3.74004300
1.80000897,3.67961700
1.80667567,3.73653400
1.81334237,3.70403100
1.82000907,3.71166100
1.82667577,3.72722600
1.83334247,3.69167200
1.84000917,3.73256600
1.84667587,3.69716500
1.85334257,3.71379700
1.86000927,3.73165100
1.86667597,3.68846700
1.87334267,3.73531300
1.88000937,3.71028800
1.88667607,3.70021700
1.89334277,3.73592300
1.90000947,3.68739900
1.90667617,3.73394000
1.91334287,3.69487600
1.92000957,3.71868000
1.92667627,3.71913800
1.93334297,3.69624900
1.94000967,3.73973800
1.94667637,3.70143700
1.95334307,3.70937200
1.96000977,3.73043000
1.96667647,3.67732800
1.97334317,3.74111200
1.98000987,3.69457100
1.98667657,3.71669700
1.99334327,3.72188500
2.00000997,3.69914800
2.00667667,3.72676800
2.01334337,3.70998300
2.02001007,3.71501800
2.02667677,3.72219000
2.03334347,3.69426600
2.04001017,3.72600500
2.04667687,3.70647300
2.05334357,3.71593400
2.06001027,3.72295300
2.06667697,3.70784600
2.07334367,3.72234200
2.08001037,3.71791700
2.08667707,3.71715500
2.09334377,3.71288200
2.10001047,3.71959600
2.10667717,3.70632000
2.11334387,3.72035900
2.12001057,3.71272900
2.12667726,3.71425500
2.13334396,3.72142700
2.14001066,3.71242400
2.14667736,3.72219000
2.15334406,3.71486500
2.16001076,3.71471300
2.16667746,3.72386900
2.17334416,3.70265800
2.18001086,3.71929100
2.18667756,3.71059300
2.19334426,3.71669700
2.20001096,3.72219000
2.20667766,3.70983000
2.21334436,3.72417400
2.22001106,3.71089800
2.22667776,3.71776500
2.23334446,3.72356300
2.24001116,3.70433700
2.24667786,3.72341100
2.25334456,3.70937200
2.26001126,3.71410300
2.26667796,3.72615700
2.27334466,3.71120300
2.28001136,3.72158000
2.28667806,3.71715500
2.29334476,3.71562900
2.30001146,3.71791700
2.30667816,3.71669700
2.31334486,3.71883300
2.32001156,3.70922000
2.32667826,3.72020600
2.33334496,3.71501800
2.34001166,3.71623900
2.34667836,3.72386900
2.35334506,3.71684900
2.36001176,3.71974800
2.36667846,3.71623900
2.37334516,3.71974800
2.38001186,3.71730700
2.38667856,3.71059300
2.39334526,3.72280000
2.40001196,3.70738900
2.40667866,3.71639200
2.41334536,3.72280000
2.42001206,3.70860900
2.42667876,3.72539400
2.43334546,3.71761200
2.44001216,3.71288200
2.44667886,3.72051100
2.45334556,3.71135600
2.46001226,3.71623900
2.46667896,3.71166100
2.47334566,3.71334000
2.48001236,3.72096900
2.48667906,3.70479400
2.49334576,3.72859900
2.50001246,3.71166100
2.50667916,3.71471300
2.51334586,3.72615700
2.52001256,3.70372600
2.52667926,3.71883300
2.53334596,3.71425500
2.54001266,3.70738900
2.54667936,3.72173200
2.55334606,3.70983000
2.56001276,3.72356300
2.56667946,3.71456000
2.57334616,3.71547600
2.58001286,3.72524200
2.58667956,3.69899600
2.59334626,3.72661500
2.60001296,3.70845700
2.60667966,3.70540500
2.61334636,3.72493700
2.62001306,3.70540500
2.62667976,3.71639200
2.63334646,3.72020600
2.64001316,3.71334000
2.64667986,3.71868000
2.65334656,3.71456000
2.66001326,3.71715500
2.66667996,3.70845700
2.67334666,3.71227100
2.68001336,3.72127400
2.68668006,3.70235300
2.69334676,3.72173200
2.70001346,3.71990100
2.70668016,3.70372600
2.71334686,3.72615700
2.72001356,3.70998300
2.72668026,3.71272900
2.73334695,3.72005400
2.74001365,3.70723600
2.74668035,3.71807000
2.75334705,3.71181400
2.76001375,3.72158000
2.76668045,3.71349200
2.77334715,3.71486500
2.78001385,3.72341100
2.78668055,3.70906700
2.79334725,3.71883300
2.80001395,3.71608600
2.80668065,3.70632000
2.81334735,3.71501800
2.82001405,3.71730700
2.82668075,3.71288200
2.83334745,3.71562900
2.84001415,3.71990100
2.84668085,3.71028800
2.85334755,3.71669700
2.86001425,3.72127400
2.86668095,3.71150900
2.87334765,3.71395000
2.88001435,3.71807000
2.88668105,3.70494700
2.89334775,3.71776500
2.90001445,3.71730700
2.90668115,3.71562900
2.91334785,3.71669700
2.92001455,3.71746000
2.92668125,3.71623900
2.93334795,3.71242400
2.94001465,3.72066400
2.94668135,3.71135600
2.95334805,3.71013500
2.96001475,3.71807000
2.96668145,3.70845700
2.97334815,3.71990100
2.98001485,3.71730700
2.98668155,3.71746000
2.99334825,3.71532300
3.00001495,3.71257700
3.00668165,3.72112200
3.01334835,3.70906700
3.02001505,3.71837500
3.02668175,3.71501800
3.03334845,3.70418400
3.04001515,3.72341100
3.04668185,3.71166100
3.05334855,3.71517100
3.06001525,3.72402100
3.06668195,3.70799900
3.07334865,3.71654400
3.08001535,3.71715500
3.08668205,3.71639200
3.09334875,3.71501800
3.10001545,3.71456000
3.10668215,3.71913800
3.11334885,3.71272900
3.12001555,3.71684900
3.12668225,3.72173200
3.13334895,3.70998300
3.14001565,3.72127400
3.14668235,3.71364500
3.15334905,3.71166100
3.16001575,3.72249500
3.16668245,3.71456000
3.17334915,3.71974800
3.18001585,3.71807000
3.18668255,3.71623900
3.19334925,3.72371600
3.20001595,3.71242400
3.20668265,3.72158000
3.21334935,3.71501800
3.22001605,3.71288200
3.22668275,3.72386900
3.23334945,3.71150900
3.24001615,3.71654400
3.24668285,3.71898600
3.25334955,3.71242400
3.26001625,3.71929100
3.26668295,3.71547600
3.27334965,3.71761200
3.28001635,3.71425500
3.28668305,3.71501800
3.29334975,3.72020600
3.30001645,3.70708300
3.30668315,3.72463200
3.31334985,3.71135600
3.32001655,3.71364500
3.32668325,3.71898600
3.33334995,3.70738900
3.34001664,3.72234200
3.34668334,3.71044000
3.35335004,3.71959600
3.36001674,3.71517100
3.36668344,3.71166100
3.37335014,3.72310600
3.38001684,3.70723600
3.38668354,3.71715500
3.39335024,3.71669700
3.40001694,3.71257700
3.40668364,3.71669700
3.41335034,3.71410300
3.42001704,3.71746000
3.42668374,3.71135600
3.43335044,3.72005400
3.44001714,3.71379700
3.44668384,3.71166100
3.45335054,3.72127400
3.46001724,3.71166100
3.46668394,3.71334000
3.47335064,3.71807000
3.48001734,3.71089800
3.48668404,3.71501800
3.49335074,3.71746000
3.50001744,3.71517100
3.50668414,3.71242400
3.51335084,3.72020600
3.52001754,3.71501800
3.52668424,3.71257700
3.53335094,3.71990100
3.54001764,3.71181400
3.54668434,3.71135600
3.55335104,3.72035900
3.56001774,3.71211900
3.56668444,3.71425500
3.57335114,3.71837500
3.58001784,3.71639200
3.58668454,3.71211900
3.59335124,3.72249500
3.60001794,3.71303400
3.60668464,3.71089800
3.61335134,3.71898600
3.62001804,3.71395000
3.62668474,3.71395000
3.63335144,3.72051100
3.64001814,3.71379700
3.64668484,3.71349200
3.65335154,3.71959600
3.66001824,3.71761200
3.66668494,3.71013500
3.67335164,3.72188500
3.68001834,3.71166100
3.68668504,3.71227100
3.69335174,3.72112200
3.70001844,3.71105100
3.70668514,3.72035900
3.71335184,3.71334000
3.72001854,3.72142700
3.72668524,3.71257700
3.73335194,3.71395000
3.74001864,3.72661500
3.74668534,3.70220000
3.75335204,3.72386900
3.76001874,3.71608600
3.76668544,3.70754100
3.77335214,3.72676800
3.78001884,3.71471300
3.78668554,3.71959600
3.79335224,3.71791700
3.80001894,3.71715500
3.80668564,3.71639200
3.81335234,3.71379700
3.82001904,3.72341100
3.82668574,3.71334000
3.83335244,3.71349200
3.84001914,3.72493700
3.84668584,3.70922000
3.85335254,3.72127400
3.86001924,3.72234200
3.86668594,3.71242400
3.87335264,3.71974800
3.88001934,3.71593400
3.88668604,3.71334000
3.89335274,3.71990100
3.90001944,3.71639200
3.90668614,3.71334000
3.91335284,3.71425500
3.92001954,3.71807000
3.92668624,3.71776500
3.93335294,3.71456000
3.94001964,3.72234200
3.94668633,3.71379700
3.95335303,3.71486500
3.96001973,3.71990100
3.96668643,3.71517100
3.97335313,3.71410300
3.98001983,3.71990100
3.98668653,3.71395000
3.99335323,3.71669700
4.00001993,3.71623900
4.00668663,3.71929100
4.01335333,3.71013500
4.02002003,3.72005400
4.02668673,3.71395000
4.03335343,3.71334000
4.04002013,3.72096900
4.04668683,3.71227100
4.05335353,3.71761200
4.06002023,3.71379700
4.06668693,3.71913800
4.07335363,3.71898600
4.08002033,3.71059300
4.08668703,3.72341100
4.09335373,3.70830400
4.10002043,3.72035900
4.10668713,3.71684900
4.11335383,3.71120300
4.12002053,3.71913800
4.12668723,3.71379700
4.13335393,3.71746000
4.14002063,3.71501800
4.14668733,3.71852800
4.15335403,3.71883300
4.16002073,3.71135600
4.16668743,3.71990100
4.17335413,3.71669700
4.18002083,3.71272900
4.18668753,3.71929100
4.19335423,3.70708300
4.20002093,3.71715500
4.20668763,3.71486500
4.21335433,3.72020600
4.22002103,3.71425500
4.22668773,3.71456000
4.23335443,3.71471300
4.24002113,3.70662500
4.24668783,3.71791700
4.25335453,3.71913800
4.26002123,3.70418400
4.26668793,3.72295300
4.27335463,3.70937200
4.28002133,3.71379700
4.28668803,3.72158000
4.29335473,3.71517100
4.30002143,3.71776500
4.30668813,3.71395000
4.31335483,3.71868000
4.32002153,3.71639200
4.32668823,3.71623900
4.33335493,3.72234200
4.34002163,3.71135600
4.34668833,3.71715500
4.35335503,3.72020600
4.36002173,3.71028800
4.36668843,3.72096900
4.37335513,3.71608600
4.38002183,3.71883300
4.38668853,3.71364500
4.39335523,3.72264800
4.40002193,3.71456000
4.40668863,3.71684900
4.41335533,3.72478400
4.42002203,3.70983000
4.42668873,3.71746000
4.43335543,3.72264800
4.44002213,3.71105100
4.44668883,3.72096900
4.45335553,3.71547600
4.46002223,3.71684900
4.46668893,3.71852800
4.47335563,3.71608600
4.48002233,3.72493700
4.48668903,3.70937200
4.49335573,3.72295300
4.50002243,3.71425500
4.50668913,3.70860900
4.51335583,3.72570000
4.52002253,3.71150900
4.52668923,3.71517100
4.53335593,3.72295300
4.54002263,3.71166100
4.54668933,3.72066400
4.55335602,3.71730700
4.56002272,3.72096900
4.56668942,3.71913800
4.57335612,3.71242400
4.58002282,3.72341100
4.58668952,3.70647300
4.59335622,3.71883300
4.60002292,3.72356300
4.60668962,3.70281100
4.61335632,3.72768300
4.62002302,3.71471300
4.62668972,3.71120300
4.63335642,3.72676800
4.64002312,3.70632000
4.64668982,3.72386900
4.65335652,3.71517100
4.66002322,3.71410300
4.66668992,3.71868000
4.67335662,3.70876200
4.68002332,3.72753100
4.68669002,3.70601500
4.69335672,3.72173200
4.70002342,3.72142700
4.70669012,3.70708300
4.71335682,3.72493700
4.72002352,3.70922000
4.72669022,3.71349200
4.73335692,3.71654400
4.74002362,3.71486500
4.74669032,3.71746000
4.75335702,3.70998300
4.76002372,3.72356300
4.76669042,3.71181400
4.77335712,3.71593400
4.78002382,3.72051100
4.78669052,3.70860900
4.79335722,3.71913800
4.80002392,3.71715500
4.80669062,3.70632000
4.81335732,3.71990100
4.82002402,3.71593400
4.82669072,3.71669700
4.83335742,3.72005400
4.84002412,3.71501800
4.84669082,3.71562900
4.85335752,3.71150900
4.86002422,3.71746000
4.86669092,3.71379700
4.87335762,3.71364500
4.88002432,3.72035900
4.88669102,3.71303400
4.89335772,3.71211900
4.90002442,3.72600500
4.90669112,3.70540500
4.91335782,3.72524200
4.92002452,3.70906700
4.92669122,3.71013500
4.93335792,3.72173200
4.94002462,3.70632000
4.94669132,3.72173200
4.95335802,3.71395000
4.96002472,3.71135600
4.96669142,3.72783600
4.97335812,3.69609700
4.98002482,3.73180300
4.98669152,3.70372600
4.99335822,3.71410300
5.00002492,3.72188500
5.00669162,3.69258700
5.01335832,3.73271900
5.02002502,3.70830400
5.02669172,3.71639200
5.03335842,3.72264800
5.04002512,3.69594400
5.04669182,3.73012500
5.05335852,3.70937200
5.06002522,3.71486500
5.06669192,3.72402100
5.07335862,3.68678900
5.08002532,3.73348200
5.08669202,3.70113200
5.09335872,3.72142700
5.10002542,3.72859900
5.10669212,3.69518100
5.11335882,3.72997200
5.12002552,3.70174300
5.12669222,3.71669700
5.13335892,3.72783600
5.14002562,3.69624900
5.14669232,3.72783600
5.15335902,3.69853800
5.16002571,3.72295300
5.16669241,3.72692000
5.17335911,3.70555700
5.18002581,3.72753100
5.18669251,3.70143700
5.19335921,3.72020600
5.20002591,3.71639200
5.20669261,3.70784600
5.21335931,3.72341100
5.22002601,3.70174300
5.22669271,3.71791700
5.23335941,3.72493700
5.24002611,3.70860900
5.24669281,3.73241400
5.25335951,3.69747000
5.26002621,3.71669700
5.26669291,3.71807000
5.27335961,3.70159000
5.28002631,3.73424500
5.28669301,3.69029800
5.29335971,3.73027700
5.30002641,3.70494700
5.30669311,3.71990100
5.31335981,3.72371600
5.32002651,3.71013500
5.32669321,3.71639200
5.33335991,3.71181400
5.34002661,3.70265800
5.34669331,3.72295300
5.35336001,3.70662500
5.36002671,3.71883300
5.36669341,3.71181400
5.37336011,3.71410300
5.38002681,3.72524200
5.38669351,3.70403100
5.39336021,3.73043000
5.40002691,3.69640200
5.40669361,3.72142700
5.41336031,3.70799900
5.42002701,3.71684900
5.42669371,3.71166100
5.43336041,3.71959600
5.44002711,3.71471300
5.44669381,3.72005400
5.45336051,3.71715500
5.46002721,3.72295300
5.46669391,3.71089800
5.47336061,3.71898600
5.48002731,3.70418400
5.48669401,3.71288200
5.49336071,3.71150900
5.50002741,3.72005400
5.50669411,3.70967700
5.51336081,3.71959600
5.52002751,3.71913800
5.52669421,3.71181400
5.53336091,3.72234200
5.54002761,3.71181400
5.54669431,3.71166100
5.55336101,3.71028800
5.56002771,3.71211900
5.56669441,3.71166100
5.57336111,3.71639200
5.58002781,3.71929100
5.58669451,3.71349200
5.59336121,3.71730700
5.60002791,3.72035900
5.60669461,3.71135600
5.61336131,3.72020600
5.62002801,3.71242400
5.62669471,3.71013500
5.63336141,3.71379700
5.64002811,3.71654400
5.64669481,3.71272900
5.65336151,3.71929100
5.66002821,3.71593400
5.66669491,3.71639200
5.67336161,3.71669700
5.68002831,3.71852800
5.68669501,3.71410300
5.69336171,3.70906700
5.70002841,3.71776500
5.70669511,3.71044000
5.71336181,3.71425500
5.72002851,3.72264800
5.72669521,3.70998300
5.73336191,3.71883300
5.74002861,3.71898600
5.74669531,3.71135600
5.75336201,3.71852800
5.76002871,3.71684900
5.76669540,3.71013500
5.77336210,3.71242400
5.78002880,3.71456000
5.78669550,3.71425500
5.79336220,3.71639200
5.80002890,3.71776500
5.80669560,3.71257700
5.81336230,3.70937200
5.82002900,3.72249500
5.82669570,3.71501800
5.83336240,3.71211900
5.84002910,3.71532300
5.84669580,3.70784600
5.85336250,3.71852800
5.86002920,3.71883300
5.86669590,3.71456000
5.87336260,3.71395000
5.88002930,3.71364500
5.88669600,3.71547600
5.89336270,3.71303400
5.90002940,3.71959600
5.90669610,3.71379700
5.91336280,3.71044000
5.92002950,3.71349200
5.92669620,3.71517100
5.93336290,3.71974800
5.94002960,3.71959600
5.94669630,3.71684900
5.95336300,3.70464200
5.96002970,3.71852800
5.96669640,3.71471300
5.97336310,3.71654400
5.98002980,3.72066400
5.98669650,3.70632000
5.99336320,3.72035900
6.00002990,3.70922000
6.00669660,3.71837500
6.01336330,3.72158000
6.02003000,3.70830400
6.02669670,3.72631000
6.03336340,3.70281100
6.04003010,3.71959600
6.04669680,3.71883300
6.05336350,3.71166100
6.06003020,3.71837500
6.06669690,3.70891500
6.07336360,3.72020600
6.08003030,3.71593400
6.08669700,3.71852800
6.09336370,3.72386900
6.10003040,3.70357400
6.10669710,3.71959600
6.11336380,3.70723600
6.12003050,3.71868000
6.12669720,3.72219000
6.13336390,3.71150900
6.14003060,3.71593400
6.14669730,3.70937200
6.15336400,3.72310600
6.16003070,3.71456000
6.16669740,3.71669700
6.17336410,3.71883300
6.18003080,3.70265800
6.18669750,3.72005400
6.19336420,3.71150900
6.20003090,3.71791700
6.20669760,3.72127400
6.21336430,3.70754100
6.22003100,3.72035900
6.22669770,3.71089800
6.23336440,3.72295300
6.24003110,3.71532300
6.24669780,3.71425500
6.25336450,3.71593400
6.26003120,3.71120300
6.26669790,3.72066400
6.27336460,3.71456000
6.28003130,3.71730700
6.28669800,3.71242400
6.29336470,3.71791700
6.30003140,3.71684900
6.30669810,3.71166100
6.31336480,3.72463200
6.32003150,3.71135600
6.32669820,3.71211900
6.33336490,3.71883300
6.34003160,3.71028800
6.34669830,3.71959600
6.35336500,3.71776500
6.36003170,3.71303400
6.36669839,3.71746000
6.37336509,3.71150900
6.38003179,3.71562900
6.38669849,3.71913800
6.39336519,3.71013500
6.40003189,3.73043000
6.40669859,3.69609700
6.41336529,3.72737800
6.42003199,3.71135600
6.42669869,3.70555700
6.43336539,3.73470300
6.44003209,3.69197700
6.44669879,3.72768300
6.45336549,3.70937200
6.46003219,3.71181400
6.46669889,3.72920900
6.47336559,3.70220000
6.48003229,3.71974800
6.48669899,3.71028800
6.49336569,3.70799900
6.50003239,3.73058300
6.50669909,3.70250600
6.51336579,3.73165100
6.52003249,3.70082700
6.52669919,3.71471300
6.53336589,3.72295300
6.54003259,3.71227100
6.54669929,3.72341100
6.55336599,3.70677800
6.56003269,3.71227100
6.56669939,3.71837500
6.57336609,3.71211900
6.58003279,3.72005400
6.58669949,3.71059300
6.59336619,3.71410300
6.60003289,3.72188500
6.60669959,3.70845700
6.61336629,3.72341100
6.62003299,3.71715500
6.62669969,3.70510000
6.63336639,3.72341100
6.64003309,3.70845700
6.64669979,3.71334000
6.65336649,3.72631000
6.66003319,3.70830400
6.66669989,3.72249500
6.67336659,3.70784600
6.68003329,3.71990100
6.68669999,3.71715500
6.69336669,3.70998300
6.70003339,3.72539400
6.70670009,3.70479400
6.71336679,3.71807000
6.72003349,3.71776500
6.72670019,3.70662500
6.73336689,3.72875100
6.74003359,3.70738900
6.74670029,3.71654400
6.75336699,3.71730700
6.76003369,3.71303400
6.76670039,3.72249500
6.77336709,3.70754100
6.78003379,3.71517100
6.78670049,3.71120300
6.79336719,3.71166100
6.80003389,3.72035900
6.80670059,3.71028800
6.81336729,3.71898600
6.82003399,3.71913800
6.82670069,3.70922000
6.83336739,3.72524200
6.84003409,3.71013500
6.84670079,3.71425500
6.85336749,3.72127400
6.86003419,3.70723600
6.86670089,3.72096900
6.87336759,3.71150900
6.88003429,3.71654400
6.88670099,3.71898600
6.89336769,3.70784600
6.90003439,3.72432600
6.90670109,3.71211900
6.91336779,3.71471300
6.92003449,3.71974800
6.92670119,3.70830400
6.93336789,3.72661500
6.94003459,3.71120300
6.94670129,3.71684900
6.95336799,3.71730700
6.96003469,3.71150900
6.96670139,3.72371600
6.97336808,3.71013500
6.98003478,3.71547600
6.98670148,3.71654400
6.99336818,3.70876200
7.00003488,3.72051100
7.00670158,3.70876200
7.01336828,3.72005400
7.02003498,3.71608600
7.02670168,3.71181400
7.03336838,3.72035900
7.04003508,3.71013500
7.04670178,3.71990100
7.05336848,3.71120300
7.06003518,3.71486500
7.06670188,3.71837500
7.07336858,3.70830400
7.08003528,3.72020600
7.08670198,3.71532300
7.09336868,3.71501800
7.10003538,3.71837500
7.10670208,3.71303400
7.11336878,3.71547600
7.12003548,3.71547600
7.12670218,3.71990100
7.13336888,3.70967700
7.14003558,3.72035900
7.14670228,3.71349200
7.15336898,3.71044000
7.16003568,3.72478400
7.16670238,3.71013500
7.17336908,3.71837500
7.18003578,3.71959600
7.18670248,3.70418400
7.19336918,3.72600500
7.20003588,3.70586300
7.20670258,3.71684900
7.21336928,3.71974800
7.22003598,3.70830400
7.22670268,3.72356300
7.23336938,3.70983000
7.24003608,3.71807000
7.24670278,3.72066400
7.25336948,3.70296300
7.26003618,3.72249500
7.26670288,3.71623900
7.27336958,3.69701200
7.28003628,3.73516000
7.28670298,3.69594400
7.29336968,3.72356300
7.30003638,3.72158000
7.30670308,3.69212900
7.31336978,3.73897500
7.32003648,3.69777500
7.32670318,3.71868000
7.33336988,3.72768300
7.34003658,3.69029800
7.34670328,3.73867000
7.35336998,3.69350300
7.36003668,3.72432600
7.36670338,3.71913800
7.37337008,3.69762300
7.38003678,3.73912800
7.38670348,3.69090800
7.39337018,3.72310600
7.40003688,3.72066400
7.40670358,3.70128500
7.41337028,3.73424500
7.42003698,3.69609700
7.42670368,3.72417400
7.43337038,3.71410300
7.44003708,3.70799900
7.44670378,3.72920900
7.45337048,3.69777500
7.46003718,3.72966700
7.46670388,3.70830400
7.47337058,3.70983000
7.48003728,3.72859900
7.48670398,3.70220000
7.49337068,3.72570000
7.50003738,3.71303400
7.50670408,3.70540500
7.51337078,3.72814100
7.52003748,3.70738900
7.52670418,3.71791700
7.53337088,3.71349200
7.54003758,3.71288200
7.54670428,3.72295300
7.55337098,3.70586300
7.56003768,3.72158000
7.56670438,3.71379700
7.57337108,3.70998300
7.58003777,3.72295300
7.58670447,3.70586300
7.59337117,3.72127400
7.60003787,3.71501800
7.60670457,3.71166100
7.61337127,3.71883300
7.62003797,3.70906700
7.62670467,3.71929100
7.63337137,3.71089800
7.64003807,3.71410300
7.64670477,3.71929100
7.65337147,3.70891500
7.66003817,3.71913800
7.66670487,3.71288200
7.67337157,3.71547600
7.68003827,3.72020600
7.68670497,3.71089800
7.69337167,3.71623900
7.70003837,3.71364500
7.70670507,3.71410300
7.71337177,3.71562900
7.72003847,3.71379700
7.72670517,3.71654400
7.73337187,3.71639200
7.74003857,3.71471300
7.74670527,3.71684900
7.75337197,3.71669700
7.76003867,3.71425500
7.76670537,3.71715500
7.77337207,3.71288200
7.78003877,3.71669700
7.78670547,3.71669700
7.79337217,3.71349200
7.80003887,3.71791700
7.80670557,3.71349200
7.81337227,3.71959600
7.82003897,3.71501800
7.82670567,3.71379700
7.83337237,3.71974800
7.84003907,3.71486500
7.84670577,3.71807000
7.85337247,3.71684900
7.86003917,3.71105100
7.86670587,3.72386900
7.87337257,3.71105100
7.88003927,3.72066400
7.88670597,3.71395000
7.89337267,3.71517100
7.90003937,3.72035900
7.90670607,3.70937200
7.91337277,3.72264800
7.92003947,3.71135600
7.92670617,3.71410300
7.93337287,3.72020600
7.94003957,3.70784600
7.94670627,3.72371600
7.95337297,3.71456000
7.96003967,3.71730700
7.96670637,3.71730700
7.97337307,3.71227100
7.98003977,3.71791700
7.98670647,3.71456000
7.99337317,3.71776500
8.00003987,3.71471300
8.00670657,3.71501800
8.01337327,3.71868000
8.02003997,3.71471300
8.02670667,3.72005400
8.03337337,3.71913800
8.04004007,3.71456000
8.04670677,3.72096900
8.05337347,3.70891500
8.06004017,3.71868000
8.06670687,3.71654400
8.07337357,3.71181400
8.08004027,3.72280000
8.08670697,3.71105100
8.09337367,3.72341100
8.10004037,3.71684900
8.10670707,3.71486500
8.11337377,3.72417400
8.12004047,3.71120300
8.12670717,3.72005400
8.13337387,3.71517100
8.14004057,3.71379700
8.14670727,3.72386900
8.15337397,3.70647300
8.16004067,3.72096900
8.16670737,3.71776500
8.17337407,3.71288200
8.18004077,3.72615700
8.18670746,3.71013500
8.19337416,3.72096900
8.20004086,3.71669700
8.20670756,3.70906700
8.21337426,3.72234200
8.22004096,3.71181400
8.22670766,3.72112200
8.23337436,3.71868000
8.24004106,3.71227100
8.24670776,3.72615700
8.25337446,3.70784600
8.26004116,3.72066400
8.26670786,3.72234200
8.27337456,3.70433700
8.28004126,3.72661500
8.28670796,3.70906700
8.29337466,3.71501800
8.30004136,3.72737800
8.30670806,3.70723600
8.31337476,3.72508900
8.32004146,3.71089800
8.32670816,3.71547600
8.33337486,3.72356300
8.34004156,3.70860900
8.34670826,3.72142700
8.35337496,3.71410300
8.36004166,3.71105100
8.36670836,3.72234200
8.37337506,3.70784600
8.38004176,3.72570000
8.38670846,3.71654400
8.39337516,3.71257700
8.40004186,3.72676800
8.40670856,3.70510000
8.41337526,3.72570000
8.42004196,3.71288200
8.42670866,3.71257700
8.43337536,3.72646300
8.44004206,3.70845700
8.44670876,3.72539400
8.45337546,3.71379700
8.46004216,3.71364500
8.46670886,3.72692000
8.47337556,3.70235300
8.48004226,3.72295300
8.48670896,3.71150900
8.49337566,3.71593400
8.50004236,3.72341100
8.50670906,3.70555700
8.51337576,3.72386900
8.52004246,3.71639200
8.52670916,3.71517100
8.53337586,3.72386900
8.54004256,3.70754100
8.54670926,3.71715500
8.55337596,3.71486500
8.56004266,3.71395000
8.56670936,3.72005400
8.57337606,3.71211900
8.58004276,3.72066400
8.58670946,3.70922000
8.59337616,3.72035900
8.60004286,3.72173200
8.60670956,3.70723600
8.61337626,3.72844600
8.62004296,3.70494700
8.62670966,3.71532300
8.63337636,3.72188500
8.64004306,3.70708300
8.64670976,3.72493700
8.65337646,3.71105100
8.66004316,3.71959600
8.66670986,3.71883300
8.67337656,3.71028800
8.68004326,3.72371600
8.68670996,3.70784600
8.69337666,3.72005400
8.70004336,3.71959600
8.70671006,3.70754100
8.71337676,3.72493700
8.72004346,3.71471300
8.72671016,3.71562900
8.73337686,3.72417400
8.74004356,3.71059300
8.74671026,3.72051100
8.75337696,3.71746000
8.76004366,3.71211900
8.76671036,3.71974800
8.77337706,3.71227100
8.78004376,3.72035900
8.78671046,3.71303400
8.79337715,3.71974800
8.80004385,3.72234200
8.80671055,3.71059300
8.81337725,3.72280000
8.82004395,3.71379700
8.82671065,3.71059300
8.83337735,3.72264800
8.84004405,3.70983000
8.84671075,3.72127400
8.85337745,3.71379700
8.86004415,3.71852800
8.86671085,3.71684900
8.87337755,3.71608600
8.88004425,3.72386900
8.88671095,3.71242400
8.89337765,3.71684900
8.90004435,3.71623900
8.90671105,3.70967700
8.91337775,3.71791700
8.92004445,3.72112200
8.92671115,3.71379700
8.93337785,3.71883300
8.94004455,3.72173200
8.94671125,3.70937200
8.95337795,3.72798800
8.96004465,3.71272900
8.96671135,3.71242400
8.97337805,3.71837500
8.98004475,3.71059300
8.98671145,3.72035900
8.99337815,3.71334000
9.00004485,3.72508900
9.00671155,3.71257700
9.01337825,3.71639200
9.02004495,3.72600500
9.02671165,3.71120300
9.03337835,3.72219000
9.04004505,3.71456000
9.04671175,3.70830400
9.05337845,3.72310600
9.06004515,3.71181400
9.06671185,3.72234200
9.07337855,3.71883300
9.08004525,3.71501800
9.08671195,3.72402100
9.09337865,3.71242400
9.10004535,3.72508900
9.10671205,3.71501800
9.11337875,3.71150900
9.12004545,3.72478400
9.12671215,3.70128500
9.13337885,3.72600500
9.14004555,3.71471300
9.14671225,3.71868000
9.15337895,3.72280000
9.16004565,3.71272900
9.16671235,3.72524200
9.17337905,3.71532300
9.18004575,3.71410300
9.18671245,3.72402100
9.19337915,3.70632000
9.20004585,3.72096900
9.20671255,3.72234200
9.21337925,3.70113200
9.22004595,3.73760200
9.22671265,3.69960600
9.23337935,3.72493700
9.24004605,3.71669700
9.24671275,3.70708300
9.25337945,3.72768300
9.26004615,3.69197700
9.26671285,3.73561800
9.27337955,3.69838500
9.28004625,3.72280000
9.28671295,3.72600500
9.29337965,3.69975900
9.30004635,3.73180300
9.30671305,3.70540500
9.31337975,3.71730700
9.32004645,3.72341100
9.32671315,3.70632000
9.33337985,3.72234200
9.34004655,3.71669700
9.34671325,3.70738900
9.35337995,3.73104000
9.36004665,3.70021700
9.36671335,3.73271900
9.37338005,3.70174300
9.38004675,3.71974800
9.38671345,3.72234200
9.39338015,3.70510000
9.40004684,3.72371600
9.40671354,3.70723600
9.41338024,3.72600500
9.42004694,3.71135600
9.42671364,3.72341100
9.43338034,3.71044000
9.44004704,3.72158000
9.44671374,3.71639200
9.45338044,3.71334000
9.46004714,3.72112200
9.46671384,3.70677800
9.47338054,3.72234200
9.48004724,3.71272900
9.48671394,3.71288200
9.49338064,3.73119300
9.50004734,3.69716500
9.50671404,3.73088800
9.51338074,3.70632000
9.52004744,3.71883300
9.52671414,3.72264800
9.53338084,3.69960600
9.54004754,3.73134600
9.54671424,3.69731700
9.55338094,3.73088800
9.56004764,3.70922000
9.56671434,3.71379700
9.57338104,3.72768300
9.58004774,3.70036900
9.58671444,3.73134600
9.59338114,3.70891500
9.60004784,3.70937200
9.60671454,3.72768300
9.61338124,3.69716500
9.62004794,3.72798800
9.62671464,3.71364500
9.63338134,3.71639200
9.64004804,3.72508900
9.64671474,3.70601500
9.65338144,3.72280000
9.66004814,3.71456000
9.66671484,3.71990100
9.67338154,3.70632000
9.68004824,3.72676800
9.68671494,3.70021700
9.69338164,3.73058300
9.70004834,3.71166100
9.70671504,3.70967700
9.71338174,3.72783600
9.72004844,3.71089800
9.72671514,3.70372600
9.73338184,3.73607600
9.74004854,3.69396000
9.74671524,3.71883300
9.75338194,3.72493700
9.76004864,3.69228200
9.76671534,3.73424500
9.77338204,3.70479400
9.78004874,3.72035900
9.78671544,3.71547600
9.79338214,3.70769400
9.80004884,3.73195600
9.80671554,3.70052200
9.81338224,3.72402100
9.82004894,3.71547600
9.82671564,3.69655400
9.83338234,3.73012500
9.84004904,3.70296300
9.84671574,3.72768300
9.85338244,3.71257700
9.86004914,3.71166100
9.86671584,3.72341100
9.87338254,3.69579100
9.88004924,3.73561800
9.88671594,3.69914800
9.89338264,3.71303400
9.90004934,3.72661500
9.90671604,3.69380800
9.91338274,3.73409200
9.92004944,3.70036900
9.92671614,3.71761200
9.93338284,3.72158000
9.94004954,3.70433700
9.94671624,3.72997200
9.95338294,3.68266800
9.96004964,3.73790700
9.96671634,3.70113200
9.97338304,3.71364500
9.98004974,3.71547600
9.98671644,3.69640200
9.99338314,3.73149800
10.00004984,3.70494700
10.00671653,3.71990100
10.01338323,3.70998300
10.02004993,3.70998300
10.02671663,3.71868000
10.03338333,3.70632000
10.04005003,3.72783600
10.04671673,3.70540500
10.05338343,3.71379700
10.06005013,3.71852800
10.06671683,3.69533400
10.07338353,3.71776500
10.08005023,3.71608600
10.08671693,3.70006400
10.09338363,3.71913800
10.10005033,3.67732800
10.10671703,3.72310600
10.11338373,3.70220000
10.12005043,3.69884300
10.12671713,3.74523100
10.13338383,3.65489700
10.14005053,3.73470300
10.14671723,3.70708300
10.15338393,3.68175300
10.16005063,3.75240300
10.16671733,3.65916900
10.17338403,3.72173200
10.18005073,3.70906700
10.18671743,3.69792800
10.19338413,3.73287200
10.20005083,3.68495800
10.20671753,3.71547600
10.21338423,3.70922000
10.22005093,3.69792800
10.22671763,3.72890400
10.23338433,3.69853800
10.24005103,3.70845700
10.24671773,3.71135600
10.25338443,3.69701200
10.26005113,3.71562900
10.26671783,3.71883300
10.27338453,3.69731700
10.28005123,3.71364500
10.28671793,3.70159000
10.29338463,3.71669700
10.30005133,3.71715500
10.30671803,3.70006400
10.31338473,3.72219000
10.32005143,3.68358400
10.32671813,3.73256600
10.33338483,3.69289200
10.34005153,3.71028800
10.34671823,3.72402100
10.35338493,3.68266800
10.36005163,3.72661500
10.36671833,3.69228200
10.37338503,3.71868000
10.38005173,3.71135600
10.38671843,3.69365500
10.39338513,3.71974800
10.40005183,3.69670700
10.40671853,3.72219000
10.41338523,3.71044000
10.42005193,3.69701200
10.42671863,3.71852800
10.43338533,3.70021700
10.44005203,3.71471300
10.44671873,3.70830400
10.45338543,3.70983000
10.46005213,3.70647300
10.46671883,3.70830400
10.47338553,3.71334000
10.48005223,3.69960600
10.48671893,3.72341100
10.49338563,3.70052200
10.50005233,3.70967700
10.50671903,3.70906700
10.51338573,3.70387900
10.52005243,3.72508900
10.52671913,3.69243500
10.53338583,3.72142700
10.54005253,3.69289200
10.54671923,3.70845700
10.55338593,3.72371600
10.56005263,3.68327900
10.56671933,3.73149800
10.57338603,3.68892500
10.58005273,3.71471300
10.58671943,3.71227100
10.59338613,3.69426600
10.60005283,3.73149800
10.60671953,3.68282100
10.61338622,3.71959600
10.62005292,3.71044000
10.62671962,3.68953500
10.63338632,3.73699100
10.64005302,3.68327900
10.64671972,3.71120300
10.65338642,3.71929100
10.66005312,3.69274000
10.66671982,3.72676800
10.67338652,3.69747000
10.68005322,3.71395000
10.68671992,3.70235300
10.69338662,3.71181400
10.70005332,3.70540500
10.70672002,3.70174300
10.71338672,3.72554700
10.72005342,3.68541500
10.72672012,3.72112200
10.73338682,3.69670700
10.74005352,3.71669700
10.74672022,3.71242400
10.75338692,3.69777500
10.76005362,3.71852800
10.76672032,3.69701200
10.77338702,3.71272900
10.78005372,3.71303400
10.78672042,3.69747000
10.79338712,3.71883300
10.80005382,3.70876200
10.80672052,3.70326900
10.81338722,3.72478400
10.82005392,3.70387900
10.82672062,3.71272900
10.83338732,3.71166100
10.84005402,3.70433700
10.84672072,3.71272900
10.85338742,3.70586300
10.86005412,3.71089800
10.86672082,3.70876200
10.87338752,3.70494700
10.88005422,3.72051100
10.88672092,3.69579100
10.89338762,3.71334000
10.90005432,3.71120300
10.90672102,3.69594400
10.91338772,3.73165100
10.92005442,3.68633100
10.92672112,3.72432600
10.93338782,3.70342100
10.94005452,3.71059300
10.94672122,3.71807000
10.95338792,3.69472300
10.96005462,3.72264800
10.96672132,3.70006400
10.97338802,3.70799900
10.98005472,3.71349200
10.98672142,3.70708300
10.99338812,3.71501800
11.00005482,3.71517100
11.00672152,3.70601500
11.01338822,3.71135600
11.02005492,3.71776500
11.02672162,3.70967700
11.03338832,3.70876200
11.04005502,3.71013500
11.04672172,3.70876200
11.05338842,3.70159000
11.06005512,3.71913800
11.06672182,3.71303400
11.07338852,3.70860900
11.08005522,3.71807000
11.08672192,3.69777500
11.09338862,3.71929100
11.10005532,3.71456000
11.10672202,3.70769400
11.11338872,3.71013500
11.12005542,3.70357400
11.12672212,3.71486500
11.13338882,3.71242400
11.14005552,3.71395000
11.14672222,3.71456000
11.15338892,3.69884300
11.16005562,3.71898600
11.16672232,3.70586300
11.17338902,3.71303400
11.18005572,3.71303400
11.18672242,3.70830400
11.19338912,3.71150900
11.20005582,3.70891500
11.20672252,3.72005400
11.21338922,3.70799900
11.22005591,3.71623900
11.22672261,3.70967700
11.23338931,3.70662500
11.24005601,3.71684900
11.24672271,3.70906700
11.25338941,3.71654400
11.26005611,3.70326900
11.26672281,3.71684900
11.27338951,3.70647300
11.28005621,3.71410300
11.28672291,3.72035900
11.29338961,3.70036900
11.30005631,3.71730700
11.30672301,3.70922000
11.31338971,3.70357400
11.32005641,3.72371600
11.32672311,3.69380800
11.33338981,3.72188500
11.34005651,3.70784600
11.34672321,3.70510000
11.35338991,3.72890400
11.36005661,3.69457100
11.36672331,3.72493700
11.37339001,3.70265800
11.38005671,3.70723600
11.38672341,3.72020600
11.39339011,3.69426600
11.40005681,3.72600500
11.40672351,3.70159000
11.41339021,3.71395000
11.42005691,3.71791700
11.42672361,3.69869100
11.43339031,3.72554700
11.44005701,3.70143700
11.44672371,3.71471300
11.45339041,3.71623900
11.46005711,3.70052200
11.46672381,3.72402100
11.47339051,3.69670700
11.48005721,3.72188500
11.48672391,3.70891500
11.49339061,3.70418400
11.50005731,3.72615700
11.50672401,3.69090800
11.51339071,3.73119300
