Time,Channel A
(s),(V)

0.00000000,0.01571703
0.00666670,0.01907407
0.01333340,0.01892148
0.02000010,0.01648000
0.02666680,0.01770074
0.03333350,0.01800592
0.04000020,0.01632740
0.04666690,0.01815851
0.05333360,0.01937925
0.06000030,0.01571703
0.06666700,0.01709037
0.07333370,0.01892148
0.08000040,0.01648000
0.08666710,0.01785333
0.09333380,0.01785333
0.10000050,0.01693777
0.10666720,0.01861629
0.11333390,0.01922666
0.12000060,0.01648000
0.12666730,0.01815851
0.13333400,0.01892148
0.14000070,0.01556444
0.14666740,0.01861629
0.15333410,0.01861629
0.16000080,0.01648000
0.16666750,0.01785333
0.17333420,0.01861629
0.18000090,0.01663259
0.18666760,0.01907407
0.19333430,0.01907407
0.20000100,0.01571703
0.20666770,0.01800592
0.21333440,0.01846370
0.22000110,0.01602222
0.22666780,0.01846370
0.23333450,0.01815851
0.24000120,0.01586962
0.24666790,0.01861629
0.25333460,0.01770074
0.26000130,0.01541185
0.26666800,0.01770074
0.27333470,0.01815851
0.28000140,0.01663259
0.28666810,0.01831111
0.29333480,0.01831111
0.30000150,0.01602222
0.30666819,0.01739555
0.31333489,0.01831111
0.32000159,0.01678518
0.32666829,0.01815851
0.33333499,0.01831111
0.34000169,0.01586962
0.34666839,0.01846370
0.35333509,0.01831111
0.36000179,0.01693777
0.36666849,0.01907407
0.37333519,0.01800592
0.38000189,0.01709037
0.38666859,0.01770074
0.39333529,0.01785333
0.40000199,0.01632740
0.40666869,0.01892148
0.41333539,0.01892148
0.42000209,0.01586962
0.42666879,0.01846370
0.43333549,0.01739555
0.44000219,0.01724296
0.44666889,0.01831111
0.45333559,0.01846370
0.46000229,0.01663259
0.46666899,0.01800592
0.47333569,0.01831111
0.48000239,0.01571703
0.48666909,0.01846370
0.49333579,0.01846370
0.50000249,0.01693777
0.50666919,0.01815851
0.51333589,0.01724296
0.52000259,0.01602222
0.52666929,0.01831111
0.53333599,0.01831111
0.54000269,0.01632740
0.54666939,0.01907407
0.55333609,0.01815851
0.56000279,0.01693777
0.56666949,0.01785333
0.57333619,0.01800592
0.58000289,0.01632740
0.58666959,0.01831111
0.59333629,0.01800592
0.60000299,0.01586962
0.60666969,0.01739555
0.61333639,0.01800592
0.62000309,0.01632740
0.62666979,0.01815851
0.63333649,0.01861629
0.64000319,0.01663259
0.64666989,0.01831111
0.65333659,0.01739555
0.66000329,0.01556444
0.66666999,0.01831111
0.67333669,0.01861629
0.68000339,0.01709037
0.68667009,0.01800592
0.69333679,0.01937925
0.70000349,0.01648000
0.70667019,0.01815851
0.71333689,0.01846370
0.72000359,0.01648000
0.72667029,0.01739555
0.73333699,0.01770074
0.74000369,0.01663259
0.74667039,0.01770074
0.75333709,0.01846370
0.76000379,0.01693777
0.76667049,0.01922666
0.77333719,0.01831111
0.78000389,0.01541185
0.78667059,0.01785333
0.79333729,0.01800592
0.80000399,0.01556444
0.80667069,0.01922666
0.81333739,0.01831111
0.82000409,0.01693777
0.82667079,0.01831111
0.83333749,0.01846370
0.84000419,0.01678518
0.84667089,0.01831111
0.85333759,0.01785333
0.86000429,0.01571703
0.86667099,0.01846370
0.87333769,0.01968444
0.88000439,0.01648000
0.88667109,0.01861629
0.89333779,0.01739555
0.90000449,0.01602222
0.90667119,0.01800592
0.91333788,0.01861629
0.92000458,0.01602222
0.92667128,0.01861629
0.93333798,0.01831111
0.94000468,0.01586962
0.94667138,0.01953185
0.95333808,0.01785333
0.96000478,0.01571703
0.96667148,0.01861629
0.97333818,0.01831111
0.98000488,0.01602222
0.98667158,0.01861629
0.99333828,0.01800592
1.00000498,0.01556444
1.00667168,0.01861629
1.01333838,0.01831111
1.02000508,0.01648000
1.02667178,0.01861629
1.03333848,0.01922666
1.04000518,0.01648000
1.04667188,0.01892148
1.05333858,0.01907407
1.06000528,0.01663259
1.06667198,0.01861629
1.07333868,0.01831111
1.08000538,0.01510666
1.08667208,0.01785333
1.09333878,0.01739555
1.10000548,0.01648000
1.10667218,0.01937925
1.11333888,0.01831111
1.12000558,0.01678518
1.12667228,0.01815851
1.13333898,0.01846370
1.14000568,0.01632740
1.14667238,0.01892148
1.15333908,0.01800592
1.16000578,0.01571703
1.16667248,0.01846370
1.17333918,0.01861629
1.18000588,0.01648000
1.18667258,0.01785333
1.19333928,0.01953185
1.20000598,0.01632740
1.20667268,0.01800592
1.21333938,0.01800592
1.22000608,0.01586962
1.22667278,0.01846370
1.23333948,0.01770074
1.24000618,0.01663259
1.24667288,0.01785333
1.25333958,0.01815851
1.26000628,0.01632740
1.26667298,0.01861629
1.27333968,0.01907407
1.28000638,0.01586962
1.28667308,0.01800592
1.29333978,0.01892148
1.30000648,0.01663259
1.30667318,0.01953185
1.31333988,0.01739555
1.32000658,0.01602222
1.32667328,0.01861629
1.33333998,0.01800592
1.34000668,0.01632740
1.34667338,0.01815851
1.35334008,0.01800592
1.36000678,0.01663259
1.36667348,0.01785333
1.37334018,0.01709037
1.38000688,0.01632740
1.38667358,0.01815851
1.39334028,0.01800592
1.40000698,0.01586962
1.40667368,0.01937925
1.41334038,0.01831111
1.42000708,0.01693777
1.42667378,0.01892148
1.43334048,0.01785333
1.44000718,0.01663259
1.44667388,0.01800592
1.45334058,0.01968444
1.46000728,0.01632740
1.46667398,0.01892148
1.47334068,0.01831111
1.48000738,0.01541185
1.48667408,0.01907407
1.49334078,0.01861629
1.50000748,0.01648000
1.50667418,0.01861629
1.51334088,0.01815851
1.52000757,0.01632740
1.52667427,0.01907407
1.53334097,0.01907407
1.54000767,0.01602222
1.54667437,0.01861629
1.55334107,0.01770074
1.56000777,0.01648000
1.56667447,0.01831111
1.57334117,0.01785333
1.58000787,0.01739555
1.58667457,0.01922666
1.59334127,0.01785333
1.60000797,0.01632740
1.60667467,0.01815851
1.61334137,0.01724296
1.62000807,0.01648000
1.62667477,0.01846370
1.63334147,0.01861629
1.64000817,0.01586962
1.64667487,0.01861629
1.65334157,0.01846370
1.66000827,0.01571703
1.66667497,0.01770074
1.67334167,0.01815851
1.68000837,0.01678518
1.68667507,0.01892148
1.69334177,0.01770074
1.70000847,0.01678518
1.70667517,0.01968444
1.71334187,0.01709037
1.72000857,0.01525925
1.72667527,0.01846370
1.73334197,0.01800592
1.74000867,0.01678518
1.74667537,0.01831111
1.75334207,0.01953185
1.76000877,0.01648000
1.76667547,0.01815851
1.77334217,0.01953185
1.78000887,0.01571703
1.78667557,0.01815851
1.79334227,0.01846370
1.80000897,0.01663259
1.80667567,0.01800592
1.81334237,0.01785333
1.82000907,0.01709037
1.82667577,0.01861629
1.83334247,0.01953185
1.84000917,0.01632740
1.84667587,0.01846370
1.85334257,0.01846370
1.86000927,0.01556444
1.86667597,0.01846370
1.87334267,0.01861629
1.88000937,0.01648000
1.88667607,0.01831111
1.89334277,0.01800592
1.90000947,0.01724296
1.90667617,0.01861629
1.91334287,0.01922666
1.92000957,0.01648000
1.92667627,0.01861629
1.93334297,0.01937925
1.94000967,0.01678518
1.94667637,0.01907407
1.95334307,0.01693777
1.96000977,0.01586962
1.96667647,0.01815851
1.97334317,0.01861629
1.98000987,0.01693777
1.98667657,0.01800592
1.99334327,0.01831111
2.00000997,0.01586962
2.00667667,0.01846370
2.01334337,0.01800592
2.02001007,0.01663259
2.02667677,0.01815851
2.03334347,0.01785333
2.04001017,0.01678518
2.04667687,0.01800592
2.05334357,0.01861629
2.06001027,0.01678518
2.06667697,0.01861629
2.07334367,0.01785333
2.08001037,0.01602222
2.08667707,0.01861629
2.09334377,0.01815851
2.10001047,0.01632740
2.10667717,0.01815851
2.11334387,0.01846370
2.12001057,0.01632740
2.12667726,0.01800592
2.13334396,0.01892148
2.14001066,0.01632740
2.14667736,0.01922666
2.15334406,0.01846370
2.16001076,0.01663259
2.16667746,0.01861629
2.17334416,0.01815851
2.18001086,0.01571703
2.18667756,0.01892148
2.19334426,0.01739555
2.20001096,0.01541185
2.20667766,0.01983703
2.21334436,0.01892148
2.22001106,0.01586962
2.22667776,0.01953185
2.23334446,0.01861629
2.24001116,0.01632740
2.24667786,0.01846370
2.25334456,0.01892148
2.26001126,0.01602222
2.26667796,0.01800592
2.27334466,0.01785333
2.28001136,0.01586962
2.28667806,0.01968444
2.29334476,0.01815851
2.30001146,0.01602222
2.30667816,0.01815851
2.31334486,0.01831111
2.32001156,0.01739555
2.32667826,0.01846370
2.33334496,0.01846370
2.34001166,0.01693777
2.34667836,0.01937925
2.35334506,0.01922666
2.36001176,0.01632740
2.36667846,0.01815851
2.37334516,0.01846370
2.38001186,0.01632740
2.38667856,0.01831111
2.39334526,0.01709037
2.40001196,0.01541185
2.40667866,0.01831111
2.41334536,0.01739555
2.42001206,0.01693777
2.42667876,0.01922666
2.43334546,0.01800592
2.44001216,0.01709037
2.44667886,0.01831111
2.45334556,0.01815851
2.46001226,0.01709037
2.46667896,0.01724296
2.47334566,0.01907407
2.48001236,0.01586962
2.48667906,0.01815851
2.49334576,0.01785333
2.50001246,0.01648000
2.50667916,0.01800592
2.51334586,0.01739555
2.52001256,0.01571703
2.52667926,0.01907407
2.53334596,0.01892148
2.54001266,0.01586962
2.54667936,0.01800592
2.55334606,0.01785333
2.56001276,0.01602222
2.56667946,0.01861629
2.57334616,0.01846370
2.58001286,0.01663259
2.58667956,0.01968444
2.59334626,0.01785333
2.60001296,0.01648000
2.60667966,0.01968444
2.61334636,0.01770074
2.62001306,0.01663259
2.62667976,0.01831111
2.63334646,0.01831111
2.64001316,0.01678518
2.64667986,0.01785333
2.65334656,0.01831111
2.66001326,0.01648000
2.66667996,0.01892148
2.67334666,0.01831111
2.68001336,0.01419111
2.68668006,0.01815851
2.69334676,0.01815851
2.70001346,0.01602222
2.70668016,0.01907407
2.71334686,0.01846370
2.72001356,0.01632740
2.72668026,0.01907407
2.73334695,0.01785333
2.74001365,0.01663259
2.74668035,0.01739555
2.75334705,0.01846370
2.76001375,0.01541185
2.76668045,0.01831111
2.77334715,0.01861629
2.78001385,0.01663259
2.78668055,0.01892148
2.79334725,0.01770074
2.80001395,0.01541185
2.80668065,0.01785333
2.81334735,0.01800592
2.82001405,0.01709037
2.82668075,0.01831111
2.83334745,0.01785333
2.84001415,0.01709037
2.84668085,0.01907407
2.85334755,0.02044740
2.86001425,0.01602222
2.86668095,0.01892148
2.87334765,0.01739555
2.88001435,0.01571703
2.88668105,0.01968444
2.89334775,0.01846370
2.90001445,0.01632740
2.90668115,0.01815851
2.91334785,0.01785333
2.92001455,0.01648000
2.92668125,0.01846370
2.93334795,0.01800592
2.94001465,0.01648000
2.94668135,0.01861629
2.95334805,0.01892148
2.96001475,0.01648000
2.96668145,0.01831111
2.97334815,0.01831111
2.98001485,0.01602222
2.98668155,0.01815851
2.99334825,0.01846370
3.00001495,0.01648000
3.00668165,0.01785333
3.01334835,0.01831111
3.02001505,0.01632740
3.02668175,0.01846370
3.03334845,0.01785333
3.04001515,0.01571703
3.04668185,0.01922666
3.05334855,0.01846370
3.06001525,0.01693777
3.06668195,0.01937925
3.07334865,0.01861629
3.08001535,0.01571703
3.08668205,0.01907407
3.09334875,0.01846370
3.10001545,0.01663259
3.10668215,0.01922666
3.11334885,0.01785333
3.12001555,0.01586962
3.12668225,0.01861629
3.13334895,0.01846370
3.14001565,0.01525925
3.14668235,0.01815851
3.15334905,0.01785333
3.16001575,0.01663259
3.16668245,0.01861629
3.17334915,0.01831111
3.18001585,0.01586962
3.18668255,0.01953185
3.19334925,0.01831111
3.20001595,0.01632740
3.20668265,0.01815851
3.21334935,0.01815851
3.22001605,0.01663259
3.22668275,0.01815851
3.23334945,0.01739555
3.24001615,0.01586962
3.24668285,0.01831111
3.25334955,0.01846370
3.26001625,0.01678518
3.26668295,0.01861629
3.27334965,0.01846370
3.28001635,0.01632740
3.28668305,0.01846370
3.29334975,0.01709037
3.30001645,0.01556444
3.30668315,0.01922666
3.31334985,0.01663259
3.32001655,0.01586962
3.32668325,0.01785333
3.33334995,0.01770074
3.34001664,0.01586962
3.34668334,0.01892148
3.35335004,0.01739555
3.36001674,0.01586962
3.36668344,0.01907407
3.37335014,0.01785333
3.38001684,0.01586962
3.38668354,0.01800592
3.39335024,0.01815851
3.40001694,0.01632740
3.40668364,0.01846370
3.41335034,0.01892148
3.42001704,0.01678518
3.42668374,0.01907407
3.43335044,0.01709037
3.44001714,0.01602222
3.44668384,0.01739555
3.45335054,0.01800592
3.46001724,0.01510666
3.46668394,0.01892148
3.47335064,0.01800592
3.48001734,0.01693777
3.48668404,0.01861629
3.49335074,0.01907407
3.50001744,0.01648000
3.50668414,0.01892148
3.51335084,0.01892148
3.52001754,0.01632740
3.52668424,0.01831111
3.53335094,0.01693777
3.54001764,0.01693777
3.54668434,0.01861629
3.55335104,0.01739555
3.56001774,0.01632740
3.56668444,0.01968444
3.57335114,0.01907407
3.58001784,0.01602222
3.58668454,0.01815851
3.59335124,0.01709037
3.60001794,0.01663259
3.60668464,0.01846370
3.61335134,0.01861629
3.62001804,0.01632740
3.62668474,0.01937925
3.63335144,0.01922666
3.64001814,0.01663259
3.64668484,0.01922666
3.65335154,0.01800592
3.66001824,0.01648000
3.66668494,0.01831111
3.67335164,0.01785333
3.68001834,0.01556444
3.68668504,0.01861629
3.69335174,0.01815851
3.70001844,0.01571703
3.70668514,0.01892148
3.71335184,0.01907407
3.72001854,0.01709037
3.72668524,0.01831111
3.73335194,0.01846370
3.74001864,0.01464888
3.74668534,0.01937925
3.75335204,0.01937925
3.76001874,0.01648000
3.76668544,0.01815851
3.77335214,0.01892148
3.78001884,0.01556444
3.78668554,0.01892148
3.79335224,0.01800592
3.80001894,0.01648000
3.80668564,0.01907407
3.81335234,0.01861629
3.82001904,0.01602222
3.82668574,0.01846370
3.83335244,0.01831111
3.84001914,0.01632740
3.84668584,0.01815851
3.85335254,0.01785333
3.86001924,0.01586962
3.86668594,0.01907407
3.87335264,0.01800592
3.88001934,0.01632740
3.88668604,0.01937925
3.89335274,0.01800592
3.90001944,0.01678518
3.90668614,0.01846370
3.91335284,0.01800592
3.92001954,0.01632740
3.92668624,0.01922666
3.93335294,0.01846370
3.94001964,0.01663259
3.94668633,0.01892148
3.95335303,0.01815851
3.96001973,0.01586962
3.96668643,0.01861629
3.97335313,0.01892148
3.98001983,0.01724296
3.98668653,0.01953185
3.99335323,0.01846370
4.00001993,0.01693777
4.00668663,0.01922666
4.01335333,0.01770074
4.02002003,0.01525925
4.02668673,0.01861629
4.03335343,0.01846370
4.04002013,0.01648000
4.04668683,0.01907407
4.05335353,0.01770074
4.06002023,0.01785333
4.06668693,0.01846370
4.07335363,0.02014222
4.08002033,0.01663259
4.08668703,0.01937925
4.09335373,0.01724296
4.10002043,0.01586962
4.10668713,0.01907407
4.11335383,0.01831111
4.12002053,0.01693777
4.12668723,0.01861629
4.13335393,0.01861629
4.14002063,0.01586962
4.14668733,0.01892148
4.15335403,0.01831111
4.16002073,0.01571703
4.16668743,0.01907407
4.17335413,0.01815851
4.18002083,0.01586962
4.18668753,0.01846370
4.19335423,0.01861629
4.20002093,0.01571703
4.20668763,0.01937925
4.21335433,0.01770074
4.22002103,0.01571703
4.22668773,0.01922666
4.23335443,0.01815851
4.24002113,0.01602222
4.24668783,0.01907407
4.25335453,0.01861629
4.26002123,0.01632740
4.26668793,0.01922666
4.27335463,0.01770074
4.28002133,0.01586962
4.28668803,0.01861629
4.29335473,0.01770074
4.30002143,0.01586962
4.30668813,0.01861629
4.31335483,0.01800592
4.32002153,0.01556444
4.32668823,0.01937925
4.33335493,0.01831111
4.34002163,0.01678518
4.34668833,0.01861629
4.35335503,0.01846370
4.36002173,0.01693777
4.36668843,0.02029481
4.37335513,0.01846370
4.38002183,0.01648000
4.38668853,0.01846370
4.39335523,0.01785333
4.40002193,0.01648000
4.40668863,0.01800592
4.41335533,0.01800592
4.42002203,0.01571703
4.42668873,0.01907407
4.43335543,0.01968444
4.44002213,0.01571703
4.44668883,0.01892148
4.45335553,0.01693777
4.46002223,0.01678518
4.46668893,0.01937925
4.47335563,0.01831111
4.48002233,0.01602222
4.48668903,0.01861629
4.49335573,0.01861629
4.50002243,0.01678518
4.50668913,0.01815851
4.51335583,0.01724296
4.52002253,0.01663259
4.52668923,0.01968444
4.53335593,0.01739555
4.54002263,0.01648000
4.54668933,0.01800592
4.55335602,0.01815851
4.56002272,0.01541185
4.56668942,0.01770074
4.57335612,0.01709037
4.58002282,0.01571703
4.58668952,0.01861629
4.59335622,0.01800592
4.60002292,0.01602222
4.60668962,0.01815851
4.61335632,0.01800592
4.62002302,0.01648000
4.62668972,0.01846370
4.63335642,0.01846370
4.64002312,0.01602222
4.64668982,0.01815851
4.65335652,0.01846370
4.66002322,0.01648000
4.66668992,0.01831111
4.67335662,0.01693777
4.68002332,0.01632740
4.68669002,0.01922666
4.69335672,0.01815851
4.70002342,0.01586962
4.70669012,0.01831111
4.71335682,0.01785333
4.72002352,0.01648000
4.72669022,0.01831111
4.73335692,0.01770074
4.74002362,0.01648000
4.74669032,0.01831111
4.75335702,0.01632740
4.76002372,0.01525925
4.76669042,0.01846370
4.77335712,0.01861629
4.78002382,0.01586962
4.78669052,0.01892148
4.79335722,0.01785333
4.80002392,0.01602222
4.80669062,0.01770074
4.81335732,0.01800592
4.82002402,0.01571703
4.82669072,0.01800592
4.83335742,0.01815851
4.84002412,0.01602222
4.84669082,0.01815851
4.85335752,0.01831111
4.86002422,0.01602222
4.86669092,0.01861629
4.87335762,0.01724296
4.88002432,0.01480148
4.88669102,0.01861629
4.89335772,0.01800592
4.90002442,0.01586962
4.90669112,0.01861629
4.91335782,0.01724296
4.92002452,0.01663259
4.92669122,0.01739555
4.93335792,0.01770074
4.94002462,0.01541185
4.94669132,0.01815851
4.95335802,0.01785333
4.96002472,0.01571703
4.96669142,0.01907407
4.97335812,0.01800592
4.98002482,0.01663259
4.98669152,0.01846370
4.99335822,0.01907407
5.00002492,0.01632740
5.00669162,0.01846370
5.01335832,0.01724296
5.02002502,0.01571703
5.02669172,0.01815851
5.03335842,0.01739555
5.04002512,0.01541185
5.04669182,0.01861629
5.05335852,0.01693777
5.06002522,0.01571703
5.06669192,0.01678518
5.07335862,0.01770074
5.08002532,0.01571703
5.08669202,0.01937925
5.09335872,0.01831111
5.10002542,0.01586962
5.10669212,0.01831111
5.11335882,0.01800592
5.12002552,0.01632740
5.12669222,0.01800592
5.13335892,0.01831111
5.14002562,0.01571703
5.14669232,0.01846370
5.15335902,0.01831111
5.16002571,0.01648000
5.16669241,0.01846370
5.17335911,0.01785333
5.18002581,0.01571703
5.18669251,0.01892148
5.19335921,0.01709037
5.20002591,0.01586962
5.20669261,0.01937925
5.21335931,0.01785333
5.22002601,0.01648000
5.22669271,0.01709037
5.23335941,0.01846370
5.24002611,0.01510666
5.24669281,0.01846370
5.25335951,0.01861629
5.26002621,0.01541185
5.26669291,0.01831111
5.27335961,0.01800592
5.28002631,0.01602222
5.28669301,0.01831111
5.29335971,0.01785333
5.30002641,0.01678518
5.30669311,0.01770074
5.31335981,0.01770074
5.32002651,0.01663259
5.32669321,0.01831111
5.33335991,0.01785333
5.34002661,0.01678518
5.34669331,0.01953185
5.35336001,0.01892148
5.36002671,0.01648000
5.36669341,0.01937925
5.37336011,0.01770074
5.38002681,0.01693777
5.38669351,0.01831111
5.39336021,0.01785333
5.40002691,0.01602222
5.40669361,0.01846370
5.41336031,0.01815851
5.42002701,0.01632740
5.42669371,0.01892148
5.43336041,0.01800592
5.44002711,0.01693777
5.44669381,0.01800592
5.45336051,0.01815851
5.46002721,0.01663259
5.46669391,0.01785333
5.47336061,0.01770074
5.48002731,0.01541185
5.48669401,0.02014222
5.49336071,0.01831111
5.50002741,0.01602222
5.50669411,0.01907407
5.51336081,0.01861629
5.52002751,0.01663259
5.52669421,0.01892148
5.53336091,0.01937925
5.54002761,0.01602222
5.54669431,0.01785333
5.55336101,0.01693777
5.56002771,0.01693777
5.56669441,0.01861629
5.57336111,0.01831111
5.58002781,0.01693777
5.58669451,0.01846370
5.59336121,0.01831111
5.60002791,0.01632740
5.60669461,0.01785333
5.61336131,0.01892148
5.62002801,0.01739555
5.62669471,0.01815851
5.63336141,0.01907407
5.64002811,0.01571703
5.64669481,0.01861629
5.65336151,0.01815851
5.66002821,0.01541185
5.66669491,0.01861629
5.67336161,0.01831111
5.68002831,0.01602222
5.68669501,0.01937925
5.69336171,0.01800592
5.70002841,0.01709037
5.70669511,0.01831111
5.71336181,0.01800592
5.72002851,0.01632740
5.72669521,0.01937925
5.73336191,0.01800592
5.74002861,0.01678518
5.74669531,0.01831111
5.75336201,0.01739555
5.76002871,0.01602222
5.76669540,0.01785333
5.77336210,0.01785333
5.78002880,0.01709037
5.78669550,0.01815851
5.79336220,0.01861629
5.80002890,0.01602222
5.80669560,0.01892148
5.81336230,0.01800592
5.82002900,0.01678518
5.82669570,0.01861629
5.83336240,0.01739555
5.84002910,0.01586962
5.84669580,0.01815851
5.85336250,0.01800592
5.86002920,0.01724296
5.86669590,0.01785333
5.87336260,0.01785333
5.88002930,0.01678518
5.88669600,0.01922666
5.89336270,0.01724296
5.90002940,0.01663259
5.90669610,0.01861629
5.91336280,0.01709037
5.92002950,0.01724296
5.92669620,0.01937925
5.93336290,0.01892148
5.94002960,0.01571703
5.94669630,0.01846370
5.95336300,0.01846370
5.96002970,0.01678518
5.96669640,0.01846370
5.97336310,0.01724296
5.98002980,0.01525925
5.98669650,0.01800592
5.99336320,0.01770074
6.00002990,0.01632740
6.00669660,0.01815851
6.01336330,0.01800592
6.02003000,0.01632740
6.02669670,0.01831111
6.03336340,0.01846370
6.04003010,0.01632740
6.04669680,0.01785333
6.05336350,0.01861629
6.06003020,0.01602222
6.06669690,0.01907407
6.07336360,0.01815851
6.08003030,0.01602222
6.08669700,0.01937925
6.09336370,0.01724296
6.10003040,0.01571703
6.10669710,0.01770074
6.11336380,0.01678518
6.12003050,0.01724296
6.12669720,0.02029481
6.13336390,0.01785333
6.14003060,0.01648000
6.14669730,0.01831111
6.15336400,0.01724296
6.16003070,0.01556444
6.16669740,0.01831111
6.17336410,0.01831111
6.18003080,0.01571703
6.18669750,0.01800592
6.19336420,0.01815851
6.20003090,0.01663259
6.20669760,0.01770074
6.21336430,0.01724296
6.22003100,0.01586962
6.22669770,0.01724296
6.23336440,0.01800592
6.24003110,0.01525925
6.24669780,0.01831111
6.25336450,0.01678518
6.26003120,0.01602222
6.26669790,0.01785333
6.27336460,0.01861629
6.28003130,0.01602222
6.28669800,0.01739555
6.29336470,0.01861629
6.30003140,0.01693777
6.30669810,0.01739555
6.31336480,0.01770074
6.32003150,0.01648000
6.32669820,0.01892148
6.33336490,0.01739555
6.34003160,0.01571703
6.34669830,0.01892148
6.35336500,0.01678518
6.36003170,0.01663259
6.36669839,0.01892148
6.37336509,0.01739555
6.38003179,0.01556444
6.38669849,0.01861629
6.39336519,0.01815851
6.40003189,0.01632740
6.40669859,0.01831111
6.41336529,0.01770074
6.42003199,0.01678518
6.42669869,0.01846370
6.43336539,0.01678518
6.44003209,0.01678518
6.44669879,0.01922666
6.45336549,0.01724296
6.46003219,0.01586962
6.46669889,0.01739555
6.47336559,0.01800592
6.48003229,0.01571703
6.48669899,0.01785333
6.49336569,0.01785333
6.50003239,0.01648000
6.50669909,0.01922666
6.51336579,0.01892148
6.52003249,0.01571703
6.52669919,0.01922666
6.53336589,0.01785333
6.54003259,0.01541185
6.54669929,0.01937925
6.55336599,0.01892148
6.56003269,0.01648000
6.56669939,0.01861629
6.57336609,0.01861629
6.58003279,0.01556444
6.58669949,0.01831111
6.59336619,0.01800592
6.60003289,0.01586962
6.60669959,0.01831111
6.61336629,0.01815851
6.62003299,0.01586962
6.62669969,0.01739555
6.63336639,0.01831111
6.64003309,0.01632740
6.64669979,0.01831111
6.65336649,0.01815851
6.66003319,0.01724296
6.66669989,0.01907407
6.67336659,0.01800592
6.68003329,0.01602222
6.68669999,0.01785333
6.69336669,0.01724296
6.70003339,0.01663259
6.70670009,0.01831111
6.71336679,0.01785333
6.72003349,0.01693777
6.72670019,0.01785333
6.73336689,0.01785333
6.74003359,0.01663259
6.74670029,0.01907407
6.75336699,0.01724296
6.76003369,0.01678518
6.76670039,0.01907407
6.77336709,0.01770074
6.78003379,0.01586962
6.78670049,0.01815851
6.79336719,0.01693777
6.80003389,0.01556444
6.80670059,0.01815851
6.81336729,0.01770074
6.82003399,0.01648000
6.82670069,0.01861629
6.83336739,0.01800592
6.84003409,0.01663259
6.84670079,0.01907407
6.85336749,0.01785333
6.86003419,0.01571703
6.86670089,0.01907407
6.87336759,0.01831111
6.88003429,0.01648000
6.88670099,0.01846370
6.89336769,0.01785333
6.90003439,0.01678518
6.90670109,0.01800592
6.91336779,0.01800592
6.92003449,0.01709037
6.92670119,0.01892148
6.93336789,0.01800592
6.94003459,0.01632740
6.94670129,0.01907407
6.95336799,0.01785333
6.96003469,0.01724296
6.96670139,0.01831111
6.97336808,0.01892148
6.98003478,0.01632740
6.98670148,0.01907407
6.99336818,0.01846370
7.00003488,0.01648000
7.00670158,0.01815851
7.01336828,0.01785333
7.02003498,0.01632740
7.02670168,0.01983703
7.03336838,0.01739555
7.04003508,0.01586962
7.04670178,0.01953185
7.05336848,0.01663259
7.06003518,0.01663259
7.06670188,0.01861629
7.07336858,0.01892148
7.08003528,0.01510666
7.08670198,0.01892148
7.09336868,0.01785333
7.10003538,0.01632740
7.10670208,0.01907407
7.11336878,0.01724296
7.12003548,0.01632740
7.12670218,0.01846370
7.13336888,0.01831111
7.14003558,0.01693777
7.14670228,0.01815851
7.15336898,0.01846370
7.16003568,0.01556444
7.16670238,0.01907407
7.17336908,0.01800592
7.18003578,0.01724296
7.18670248,0.01815851
7.19336918,0.01785333
7.20003588,0.01602222
7.20670258,0.01922666
7.21336928,0.01892148
7.22003598,0.01632740
7.22670268,0.01861629
7.23336938,0.01846370
7.24003608,0.01525925
7.24670278,0.01907407
7.25336948,0.01663259
7.26003618,0.01632740
7.26670288,0.01770074
7.27336958,0.01800592
7.28003628,0.01586962
7.28670298,0.01831111
7.29336968,0.01815851
7.30003638,0.01541185
7.30670308,0.01861629
7.31336978,0.01785333
7.32003648,0.01678518
7.32670318,0.01892148
7.33336988,0.01739555
7.34003658,0.01510666
7.34670328,0.01937925
7.35336998,0.01785333
7.36003668,0.01663259
7.36670338,0.01922666
7.37337008,0.01831111
7.38003678,0.01602222
7.38670348,0.01815851
7.39337018,0.01846370
7.40003688,0.01586962
7.40670358,0.01831111
7.41337028,0.01831111
7.42003698,0.01571703
7.42670368,0.01968444
7.43337038,0.01770074
7.44003708,0.01586962
7.44670378,0.01861629
7.45337048,0.01846370
7.46003718,0.01678518
7.46670388,0.01953185
7.47337058,0.01815851
7.48003728,0.01571703
7.48670398,0.01892148
7.49337068,0.01724296
7.50003738,0.01541185
7.50670408,0.01815851
7.51337078,0.01785333
7.52003748,0.01693777
7.52670418,0.01815851
7.53337088,0.01770074
7.54003758,0.01663259
7.54670428,0.01861629
7.55337098,0.01831111
7.56003768,0.01709037
7.56670438,0.01907407
7.57337108,0.01846370
7.58003777,0.01525925
7.58670447,0.01892148
7.59337117,0.01846370
7.60003787,0.01663259
7.60670457,0.01892148
7.61337127,0.01831111
7.62003797,0.01586962
7.62670467,0.01861629
7.63337137,0.01831111
7.64003807,0.01586962
7.64670477,0.01800592
7.65337147,0.01785333
7.66003817,0.01571703
7.66670487,0.01907407
7.67337157,0.01937925
7.68003827,0.01632740
7.68670497,0.01922666
7.69337167,0.01800592
7.70003837,0.01632740
7.70670507,0.01861629
7.71337177,0.01846370
7.72003847,0.01648000
7.72670517,0.01831111
7.73337187,0.01846370
7.74003857,0.01648000
7.74670527,0.01937925
7.75337197,0.01770074
7.76003867,0.01709037
7.76670537,0.01892148
7.77337207,0.01892148
7.78003877,0.01770074
7.78670547,0.01953185
7.79337217,0.01785333
7.80003887,0.01602222
7.80670557,0.01861629
7.81337227,0.01846370
7.82003897,0.01693777
7.82670567,0.01907407
7.83337237,0.01709037
7.84003907,0.01556444
7.84670577,0.01831111
7.85337247,0.01739555
7.86003917,0.01678518
7.86670587,0.01907407
7.87337257,0.01815851
7.88003927,0.01586962
7.88670597,0.01907407
7.89337267,0.01815851
7.90003937,0.01709037
7.90670607,0.01968444
7.91337277,0.01785333
7.92003947,0.01663259
7.92670617,0.01861629
7.93337287,0.01907407
7.94003957,0.01556444
7.94670627,0.01861629
7.95337297,0.01770074
7.96003967,0.01632740
7.96670637,0.01953185
7.97337307,0.01739555
7.98003977,0.01632740
7.98670647,0.01907407
7.99337317,0.01770074
8.00003987,0.01663259
8.00670657,0.01892148
8.01337327,0.01846370
8.02003997,0.01632740
8.02670667,0.01968444
8.03337337,0.01846370
8.04004007,0.01663259
8.04670677,0.01831111
8.05337347,0.01831111
8.06004017,0.01724296
8.06670687,0.01785333
8.07337357,0.01846370
8.08004027,0.01709037
8.08670697,0.01907407
8.09337367,0.01739555
8.10004037,0.01678518
8.10670707,0.01907407
8.11337377,0.01800592
8.12004047,0.01693777
8.12670717,0.01907407
8.13337387,0.01846370
8.14004057,0.01632740
8.14670727,0.01831111
8.15337397,0.01800592
8.16004067,0.01602222
8.16670737,0.01892148
8.17337407,0.01785333
8.18004077,0.01632740
8.18670746,0.01861629
8.19337416,0.01785333
8.20004086,0.01678518
8.20670756,0.01831111
8.21337426,0.01846370
8.22004096,0.01632740
8.22670766,0.01892148
8.23337436,0.01770074
8.24004106,0.01648000
8.24670776,0.01937925
8.25337446,0.01800592
8.26004116,0.01693777
8.26670786,0.01922666
8.27337456,0.01922666
8.28004126,0.01602222
8.28670796,0.01831111
8.29337466,0.01892148
8.30004136,0.01663259
8.30670806,0.02014222
8.31337476,0.01739555
8.32004146,0.01648000
8.32670816,0.01815851
8.33337486,0.01907407
8.34004156,0.01602222
8.34670826,0.01831111
8.35337496,0.01815851
8.36004166,0.01678518
8.36670836,0.01861629
8.37337506,0.01815851
8.38004176,0.01709037
8.38670846,0.01815851
8.39337516,0.01800592
8.40004186,0.01586962
8.40670856,0.01815851
8.41337526,0.01800592
8.42004196,0.01632740
8.42670866,0.01861629
8.43337536,0.01815851
8.44004206,0.01632740
8.44670876,0.01800592
8.45337546,0.01831111
8.46004216,0.01571703
8.46670886,0.01953185
8.47337556,0.01815851
8.48004226,0.01632740
8.48670896,0.01846370
8.49337566,0.01785333
8.50004236,0.01602222
8.50670906,0.01846370
8.51337576,0.01739555
8.52004246,0.01724296
8.52670916,0.01861629
8.53337586,0.01861629
8.54004256,0.01663259
8.54670926,0.01846370
8.55337596,0.01922666
8.56004266,0.01739555
8.56670936,0.01831111
8.57337606,0.01815851
8.58004276,0.01770074
8.58670946,0.01861629
8.59337616,0.01693777
8.60004286,0.01648000
8.60670956,0.01907407
8.61337626,0.01724296
8.62004296,0.01693777
8.62670966,0.01861629
8.63337636,0.01739555
8.64004306,0.01709037
8.64670976,0.01922666
8.65337646,0.01892148
8.66004316,0.01602222
8.66670986,0.01937925
8.67337656,0.01815851
8.68004326,0.01648000
8.68670996,0.01846370
8.69337666,0.01846370
8.70004336,0.01648000
8.70671006,0.01815851
8.71337676,0.01846370
8.72004346,0.01602222
8.72671016,0.01907407
8.73337686,0.01739555
8.74004356,0.01678518
8.74671026,0.01831111
8.75337696,0.01846370
8.76004366,0.01678518
8.76671036,0.01815851
8.77337706,0.01815851
8.78004376,0.01648000
8.78671046,0.01800592
8.79337715,0.01770074
8.80004385,0.01663259
8.80671055,0.01892148
8.81337725,0.01785333
8.82004395,0.01709037
8.82671065,0.01861629
8.83337735,0.01831111
8.84004405,0.01586962
8.84671075,0.01937925
8.85337745,0.01892148
8.86004415,0.01663259
8.86671085,0.01861629
8.87337755,0.01815851
8.88004425,0.01602222
8.88671095,0.01861629
8.89337765,0.01861629
8.90004435,0.01632740
8.90671105,0.01937925
8.91337775,0.01907407
8.92004445,0.01724296
8.92671115,0.01892148
8.93337785,0.01831111
8.94004455,0.01724296
8.94671125,0.01861629
8.95337795,0.01770074
8.96004465,0.01663259
8.96671135,0.01861629
8.97337805,0.01846370
8.98004475,0.01632740
8.98671145,0.01846370
8.99337815,0.01785333
9.00004485,0.01586962
9.00671155,0.01922666
9.01337825,0.01892148
9.02004495,0.01663259
9.02671165,0.01846370
9.03337835,0.01892148
9.04004505,0.01709037
9.04671175,0.01861629
9.05337845,0.01815851
9.06004515,0.01648000
9.06671185,0.01922666
9.07337855,0.01815851
9.08004525,0.01602222
9.08671195,0.01861629
9.09337865,0.01800592
9.10004535,0.01632740
9.10671205,0.01937925
9.11337875,0.01709037
9.12004545,0.02151555
9.12671215,0.02761925
9.13337885,0.01678518
9.14004555,0.02136296
9.14671225,0.01800592
9.15337895,0.01907407
9.16004565,0.01922666
9.16671235,0.01739555
9.17337905,0.01648000
9.18004575,0.01541185
9.18671245,0.01831111
9.19337915,0.02014222
9.20004585,0.01678518
9.20671255,0.01861629
9.21337925,0.01892148
9.22004595,0.01556444
9.22671265,0.01968444
9.23337935,0.01785333
9.24004605,0.01693777
9.24671275,0.01907407
9.25337945,0.01770074
9.26004615,0.01739555
9.26671285,0.01800592
9.27337955,0.01937925
9.28004625,0.01739555
9.28671295,0.01815851
9.29337965,0.01892148
9.30004635,0.01602222
9.30671305,0.01831111
9.31337975,0.01861629
9.32004645,0.01724296
9.32671315,0.01892148
9.33337985,0.01770074
9.34004655,0.01724296
9.34671325,0.01922666
9.35337995,0.01861629
9.36004665,0.01663259
9.36671335,0.01846370
9.37338005,0.01892148
9.38004675,0.01632740
9.38671345,0.01922666
9.39338015,0.01846370
9.40004684,0.01739555
9.40671354,0.01846370
9.41338024,0.01831111
9.42004694,0.01541185
9.42671364,0.01861629
9.43338034,0.01922666
9.44004704,0.01785333
9.44671374,0.01983703
9.45338044,0.01846370
9.46004714,0.01632740
9.46671384,0.01861629
9.47338054,0.01861629
9.48004724,0.01556444
9.48671394,0.01922666
9.49338064,0.01800592
9.50004734,0.01678518
9.50671404,0.01937925
9.51338074,0.01846370
9.52004744,0.01678518
9.52671414,0.01846370
9.53338084,0.01800592
9.54004754,0.01693777
9.54671424,0.01968444
9.55338094,0.01907407
9.56004764,0.01709037
9.56671434,0.01815851
9.57338104,0.01800592
9.58004774,0.01648000
9.58671444,0.01785333
9.59338114,0.01983703
9.60004784,0.01632740
9.60671454,0.01907407
9.61338124,0.01846370
9.62004794,0.01709037
9.62671464,0.01846370
9.63338134,0.01815851
9.64004804,0.01632740
9.64671474,0.01892148
9.65338144,0.01846370
9.66004814,0.01709037
9.66671484,0.01846370
9.67338154,0.01892148
9.68004824,0.01586962
9.68671494,0.01907407
9.69338164,0.01785333
9.70004834,0.01693777
9.70671504,0.01831111
9.71338174,0.01907407
9.72004844,0.01663259
9.72671514,0.01892148
9.73338184,0.01815851
9.74004854,0.01648000
9.74671524,0.01846370
9.75338194,0.02014222
9.76004864,0.01709037
9.76671534,0.01800592
9.77338204,0.01815851
9.78004874,0.01739555
9.78671544,0.01739555
9.79338214,0.01846370
9.80004884,0.01648000
9.80671554,0.01785333
9.81338224,0.01770074
9.82004894,0.01648000
9.82671564,0.01846370
9.83338234,0.01861629
9.84004904,0.01586962
9.84671574,0.01922666
9.85338244,0.01815851
9.86004914,0.01663259
9.86671584,0.01861629
9.87338254,0.01800592
9.88004924,0.01739555
9.88671594,0.01861629
9.89338264,0.01800592
9.90004934,0.01693777
9.90671604,0.01815851
9.91338274,0.01831111
9.92004944,0.01693777
9.92671614,0.01892148
9.93338284,0.01937925
9.94004954,0.01663259
9.94671624,0.01892148
9.95338294,0.01815851
9.96004964,0.01571703
9.96671634,0.01907407
9.97338304,0.01815851
9.98004974,0.01586962
9.98671644,0.01785333
9.99338314,0.01907407
10.00004984,0.01602222
10.00671653,0.01831111
10.01338323,0.01815851
10.02004993,0.01556444
10.02671663,0.01892148
10.03338333,0.01831111
10.04005003,0.01602222
10.04671673,0.01785333
10.05338343,0.01709037
10.06005013,0.01602222
10.06671683,0.01907407
10.07338353,0.01831111
10.08005023,0.01541185
10.08671693,0.01815851
10.09338363,0.01892148
10.10005033,0.01678518
10.10671703,0.01815851
10.11338373,0.01815851
10.12005043,0.01586962
10.12671713,0.01831111
10.13338383,0.01831111
10.14005053,0.01724296
10.14671723,0.01861629
10.15338393,0.01846370
10.16005063,0.01724296
10.16671733,0.01815851
10.17338403,0.01815851
10.18005073,0.01693777
10.18671743,0.01861629
10.19338413,0.01770074
10.20005083,0.01602222
10.20671753,0.01831111
10.21338423,0.01770074
10.22005093,0.01632740
10.22671763,0.01846370
10.23338433,0.01785333
10.24005103,0.01678518
10.24671773,0.01861629
10.25338443,0.01831111
10.26005113,0.01709037
10.26671783,0.01800592
10.27338453,0.01815851
10.28005123,0.01648000
10.28671793,0.01907407
10.29338463,0.01831111
10.30005133,0.01648000
10.30671803,0.01861629
10.31338473,0.01846370
10.32005143,0.01632740
10.32671813,0.01815851
10.33338483,0.01846370
10.34005153,0.01648000
10.34671823,0.01953185
10.35338493,0.01785333
10.36005163,0.01693777
10.36671833,0.01831111
10.37338503,0.01815851
10.38005173,0.01678518
10.38671843,0.01861629
10.39338513,0.01892148
10.40005183,0.01632740
10.40671853,0.01785333
10.41338523,0.01846370
10.42005193,0.01586962
10.42671863,0.01846370
10.43338533,0.01892148
10.44005203,0.01648000
10.44671873,0.01937925
10.45338543,0.01831111
10.46005213,0.01586962
10.46671883,0.01831111
10.47338553,0.01892148
10.48005223,0.01693777
10.48671893,0.01846370
10.49338563,0.01892148
10.50005233,0.01663259
10.50671903,0.01831111
10.51338573,0.01831111
10.52005243,0.01648000
10.52671913,0.01846370
10.53338583,0.01907407
10.54005253,0.01602222
10.54671923,0.01800592
10.55338593,0.01907407
10.56005263,0.01602222
10.56671933,0.01907407
10.57338603,0.01800592
10.58005273,0.01632740
10.58671943,0.01861629
10.59338613,0.01739555
10.60005283,0.01602222
10.60671953,0.01831111
10.61338622,0.01831111
10.62005292,0.01602222
10.62671962,0.01892148
10.63338632,0.01846370
10.64005302,0.01571703
10.64671972,0.01861629
10.65338642,0.01785333
10.66005312,0.01663259
10.66671982,0.01815851
10.67338652,0.01846370
10.68005322,0.01556444
10.68671992,0.01846370
10.69338662,0.01785333
10.70005332,0.01693777
10.70672002,0.01846370
10.71338672,0.01815851
10.72005342,0.01663259
10.72672012,0.01861629
10.73338682,0.01785333
10.74005352,0.01739555
10.74672022,0.01922666
10.75338692,0.01800592
10.76005362,0.01632740
10.76672032,0.01937925
10.77338702,0.01815851
10.78005372,0.01602222
10.78672042,0.01693777
10.79338712,0.01907407
10.80005382,0.01586962
10.80672052,0.01892148
10.81338722,0.01937925
10.82005392,0.01602222
10.82672062,0.01892148
10.83338732,0.01892148
10.84005402,0.01586962
10.84672072,0.01922666
10.85338742,0.01846370
10.86005412,0.01678518
10.86672082,0.01861629
10.87338752,0.01846370
10.88005422,0.01602222
10.88672092,0.01892148
10.89338762,0.01831111
10.90005432,0.01663259
10.90672102,0.01831111
10.91338772,0.01922666
10.92005442,0.01663259
10.92672112,0.01953185
10.93338782,0.01953185
10.94005452,0.01800592
10.94672122,0.01815851
10.95338792,0.01815851
10.96005462,0.01693777
10.96672132,0.01846370
10.97338802,0.01861629
10.98005472,0.01632740
