Time,Channel A
(s),(V)

0.00000000,0.13275550
0.00666670,0.13367110
0.01333340,0.13153480
0.02000010,0.13199250
0.02666680,0.13382370
0.03333350,0.13122960
0.04000020,0.13245030
0.04666690,0.13306070
0.05333360,0.13107700
0.06000030,0.13321330
0.06666700,0.13351850
0.07333370,0.13016140
0.08000040,0.13229770
0.08666710,0.13275550
0.09333380,0.13077180
0.10000050,0.13122960
0.10666720,0.13321330
0.11333390,0.13184000
0.12000060,0.13214520
0.12666730,0.13367110
0.13333400,0.13016140
0.14000070,0.13336590
0.14666740,0.13306070
0.15333410,0.12955110
0.16000080,0.13336590
0.16666750,0.13382370
0.17333420,0.13122960
0.18000090,0.13122960
0.18666760,0.13260290
0.19333430,0.13092440
0.20000100,0.13229770
0.20666770,0.13397630
0.21333440,0.13061920
0.22000110,0.13306070
0.22666780,0.13336590
0.23333450,0.13138220
0.24000120,0.13153480
0.24666790,0.13321330
0.25333460,0.13092440
0.26000130,0.13229770
0.26666800,0.13443400
0.27333470,0.13107700
0.28000140,0.13275550
0.28666810,0.13428140
0.29333480,0.13016140
0.30000150,0.13229770
0.30666819,0.13351850
0.31333489,0.13107700
0.32000159,0.13245030
0.32666829,0.13458660
0.33333499,0.13199250
0.34000169,0.13275550
0.34666839,0.13397630
0.35333509,0.13092440
0.36000179,0.13122960
0.36666849,0.13306070
0.37333519,0.13000880
0.38000189,0.13214520
0.38666859,0.13321330
0.39333529,0.13138220
0.40000199,0.13153480
0.40666869,0.13321330
0.41333539,0.13153480
0.42000209,0.13260290
0.42666879,0.13443400
0.43333549,0.13214520
0.44000219,0.13138220
0.44666889,0.13382370
0.45333559,0.13184000
0.46000229,0.13199250
0.46666899,0.13321330
0.47333569,0.13214520
0.48000239,0.13275550
0.48666909,0.13458660
0.49333579,0.13122960
0.50000249,0.13275550
0.50666919,0.13382370
0.51333589,0.13031400
0.52000259,0.13229770
0.52666929,0.13443400
0.53333599,0.13092440
0.54000269,0.13275550
0.54666939,0.13367110
0.55333609,0.13122960
0.56000279,0.13229770
0.56666949,0.13336590
0.57333619,0.13214520
0.58000289,0.13229770
0.58666959,0.13397630
0.59333629,0.13061920
0.60000299,0.13214520
0.60666969,0.13428140
0.61333639,0.12970370
0.62000309,0.13229770
0.62666979,0.13351850
0.63333649,0.13000880
0.64000319,0.13229770
0.64666989,0.13351850
0.65333659,0.13138220
0.66000329,0.13199250
0.66666999,0.13473920
0.67333669,0.13153480
0.68000339,0.13138220
0.68667009,0.13336590
0.69333679,0.13122960
0.70000349,0.13199250
0.70667019,0.13443400
0.71333689,0.13122960
0.72000359,0.13214520
0.72667029,0.13428140
0.73333699,0.13092440
0.74000369,0.13138220
0.74667039,0.13367110
0.75333709,0.13031400
0.76000379,0.13184000
0.76667049,0.13367110
0.77333719,0.13092440
0.78000389,0.13245030
0.78667059,0.13260290
0.79333729,0.13061920
0.80000399,0.13199250
0.80667069,0.13382370
0.81333739,0.13077180
0.82000409,0.13184000
0.82667079,0.13351850
0.83333749,0.13138220
0.84000419,0.13184000
0.84667089,0.13351850
0.85333759,0.13031400
0.86000429,0.13260290
0.86667099,0.13321330
0.87333769,0.13016140
0.88000439,0.13107700
0.88667109,0.13351850
0.89333779,0.13122960
0.90000449,0.13199250
0.90667119,0.13382370
0.91333788,0.13061920
0.92000458,0.13077180
0.92667128,0.13351850
0.93333798,0.13077180
0.94000468,0.13153480
0.94667138,0.13458660
0.95333808,0.13031400
0.96000478,0.13214520
0.96667148,0.13428140
0.97333818,0.13077180
0.98000488,0.13214520
0.98667158,0.13382370
0.99333828,0.13229770
1.00000498,0.13184000
1.00667168,0.13382370
1.01333838,0.13153480
1.02000508,0.13275550
1.02667178,0.13306070
1.03333848,0.13031400
1.04000518,0.13138220
1.04667188,0.13351850
1.05333858,0.13199250
1.06000528,0.13229770
1.06667198,0.13351850
1.07333868,0.13077180
1.08000538,0.13153480
1.08667208,0.13275550
1.09333878,0.13092440
1.10000548,0.13016140
1.10667218,0.13428140
1.11333888,0.13107700
1.12000558,0.13153480
1.12667228,0.13336590
1.13333898,0.13016140
1.14000568,0.13153480
1.14667238,0.13351850
1.15333908,0.13107700
1.16000578,0.13138220
1.16667248,0.13336590
1.17333918,0.13153480
1.18000588,0.13077180
1.18667258,0.13245030
1.19333928,0.13138220
1.20000598,0.13214520
1.20667268,0.13306070
1.21333938,0.13031400
1.22000608,0.13092440
1.22667278,0.13443400
1.23333948,0.13107700
1.24000618,0.13092440
1.24667288,0.13351850
1.25333958,0.13122960
1.26000628,0.13122960
1.26667298,0.13321330
1.27333968,0.13199250
1.28000638,0.13122960
1.28667308,0.13367110
1.29333978,0.13199250
1.30000648,0.13229770
1.30667318,0.13367110
1.31333988,0.13184000
1.32000658,0.13184000
1.32667328,0.13275550
1.33333998,0.13138220
1.34000668,0.13199250
1.34667338,0.13367110
1.35334008,0.13122960
1.36000678,0.13122960
1.36667348,0.13351850
1.37334018,0.13138220
1.38000688,0.13138220
1.38667358,0.13351850
1.39334028,0.13260290
1.40000698,0.13199250
1.40667368,0.13321330
1.41334038,0.13092440
1.42000708,0.13214520
1.42667378,0.13382370
1.43334048,0.13122960
1.44000718,0.13229770
1.44667388,0.13367110
1.45334058,0.13184000
1.46000728,0.13153480
1.46667398,0.13321330
1.47334068,0.13199250
1.48000738,0.13214520
1.48667408,0.13336590
1.49334078,0.13122960
1.50000748,0.13031400
1.50667418,0.13367110
1.51334088,0.13107700
1.52000757,0.13122960
1.52667427,0.13443400
1.53334097,0.13153480
1.54000767,0.13153480
1.54667437,0.13367110
1.55334107,0.13016140
1.56000777,0.13122960
1.56667447,0.13428140
1.57334117,0.13138220
1.58000787,0.13214520
1.58667457,0.13367110
1.59334127,0.13214520
1.60000797,0.13107700
1.60667467,0.13397630
1.61334137,0.13199250
1.62000807,0.13077180
1.62667477,0.13321330
1.63334147,0.13214520
1.64000817,0.13122960
1.64667487,0.13351850
1.65334157,0.13122960
1.66000827,0.13107700
1.66667497,0.13443400
1.67334167,0.13138220
1.68000837,0.13245030
1.68667507,0.13351850
1.69334177,0.13153480
1.70000847,0.13138220
1.70667517,0.13306070
1.71334187,0.13214520
1.72000857,0.13138220
1.72667527,0.13428140
1.73334197,0.13260290
1.74000867,0.13061920
1.74667537,0.13351850
1.75334207,0.13122960
1.76000877,0.13184000
1.76667547,0.13504440
1.77334217,0.13199250
1.78000887,0.13122960
1.78667557,0.13275550
1.79334227,0.13138220
1.80000897,0.13077180
1.80667567,0.13351850
1.81334237,0.13153480
1.82000907,0.13122960
1.82667577,0.13351850
1.83334247,0.13122960
1.84000917,0.13122960
1.84667587,0.13443400
1.85334257,0.13321330
1.86000927,0.13199250
1.86667597,0.13367110
1.87334267,0.13199250
1.88000937,0.13214520
1.88667607,0.13367110
1.89334277,0.13245030
1.90000947,0.13122960
1.90667617,0.13397630
1.91334287,0.13199250
1.92000957,0.13229770
1.92667627,0.13351850
1.93334297,0.13138220
1.94000967,0.13199250
1.94667637,0.13321330
1.95334307,0.13199250
1.96000977,0.13092440
1.96667647,0.13428140
1.97334317,0.13107700
1.98000987,0.13229770
1.98667657,0.13397630
1.99334327,0.13214520
2.00000997,0.13122960
2.00667667,0.13458660
2.01334337,0.13184000
2.02001007,0.13122960
2.02667677,0.13336590
2.03334347,0.13214520
2.04001017,0.13229770
2.04667687,0.13397630
2.05334357,0.13184000
2.06001027,0.13138220
2.06667697,0.13489180
2.07334367,0.13184000
2.08001037,0.13122960
2.08667707,0.13336590
2.09334377,0.13275550
2.10001047,0.13153480
2.10667717,0.13473920
2.11334387,0.13184000
2.12001057,0.13260290
2.12667726,0.13428140
2.13334396,0.13199250
2.14001066,0.13199250
2.14667736,0.13489180
2.15334406,0.13153480
2.16001076,0.13107700
2.16667746,0.13367110
2.17334416,0.13260290
2.18001086,0.13184000
2.18667756,0.13351850
2.19334426,0.13260290
2.20001096,0.13107700
2.20667766,0.13428140
2.21334436,0.13199250
2.22001106,0.13245030
2.22667776,0.13397630
2.23334446,0.13138220
2.24001116,0.13092440
2.24667786,0.13367110
2.25334456,0.13199250
2.26001126,0.13122960
2.26667796,0.13397630
2.27334466,0.13260290
2.28001136,0.13184000
2.28667806,0.13504440
2.29334476,0.13077180
2.30001146,0.13092440
2.30667816,0.13397630
2.31334486,0.13107700
2.32001156,0.13061920
2.32667826,0.13458660
2.33334496,0.13092440
2.34001166,0.13184000
2.34667836,0.13382370
2.35334506,0.13275550
2.36001176,0.13153480
2.36667846,0.13443400
2.37334516,0.13199250
2.38001186,0.13245030
2.38667856,0.13458660
2.39334526,0.13138220
2.40001196,0.13153480
2.40667866,0.13473920
2.41334536,0.13321330
2.42001206,0.13199250
2.42667876,0.13443400
2.43334546,0.13122960
2.44001216,0.13199250
2.44667886,0.13397630
2.45334556,0.13199250
2.46001226,0.13153480
2.46667896,0.13382370
2.47334566,0.13199250
2.48001236,0.13138220
2.48667906,0.13534960
2.49334576,0.13122960
2.50001246,0.13122960
2.50667916,0.13458660
2.51334586,0.13214520
2.52001256,0.13138220
2.52667926,0.13336590
2.53334596,0.13138220
2.54001266,0.13153480
2.54667936,0.13458660
2.55334606,0.13306070
2.56001276,0.13092440
2.56667946,0.13473920
2.57334616,0.13214520
2.58001286,0.13214520
2.58667956,0.13351850
2.59334626,0.13260290
2.60001296,0.13138220
2.60667966,0.13351850
2.61334636,0.13245030
2.62001306,0.13122960
2.62667976,0.13473920
2.63334646,0.13214520
2.64001316,0.13184000
2.64667986,0.13428140
2.65334656,0.13199250
2.66001326,0.13138220
2.66667996,0.13397630
2.67334666,0.13245030
2.68001336,0.13122960
2.68668006,0.13367110
2.69334676,0.13229770
2.70001346,0.13138220
2.70668016,0.13428140
2.71334686,0.13229770
2.72001356,0.13138220
2.72668026,0.13443400
2.73334695,0.13245030
2.74001365,0.13122960
2.74668035,0.13504440
2.75334705,0.13260290
2.76001375,0.13092440
2.76668045,0.13367110
2.77334715,0.13245030
2.78001385,0.13061920
2.78668055,0.13428140
2.79334725,0.13214520
2.80001395,0.13122960
2.80668065,0.13443400
2.81334735,0.13184000
2.82001405,0.13061920
2.82668075,0.13428140
2.83334745,0.13275550
2.84001415,0.13092440
2.84668085,0.13397630
2.85334755,0.13214520
2.86001425,0.13107700
2.86668095,0.13336590
2.87334765,0.13260290
2.88001435,0.13229770
2.88668105,0.13458660
2.89334775,0.13061920
2.90001445,0.13092440
2.90668115,0.13382370
2.91334785,0.13138220
2.92001455,0.13184000
2.92668125,0.13367110
2.93334795,0.13245030
2.94001465,0.13122960
2.94668135,0.13443400
2.95334805,0.13184000
2.96001475,0.13199250
2.96668145,0.13443400
2.97334815,0.13184000
2.98001485,0.13107700
2.98668155,0.13458660
2.99334825,0.13260290
3.00001495,0.13214520
3.00668165,0.13351850
3.01334835,0.13260290
3.02001505,0.13107700
3.02668175,0.13367110
3.03334845,0.13275550
3.04001515,0.13077180
3.04668185,0.13489180
3.05334855,0.13184000
3.06001525,0.13077180
3.06668195,0.13428140
3.07334865,0.13260290
3.08001535,0.13107700
3.08668205,0.13336590
3.09334875,0.13184000
3.10001545,0.13138220
3.10668215,0.13367110
3.11334885,0.13214520
3.12001555,0.13077180
3.12668225,0.13428140
3.13334895,0.13107700
3.14001565,0.13184000
3.14668235,0.13382370
3.15334905,0.13199250
3.16001575,0.13107700
3.16668245,0.13367110
3.17334915,0.13245030
3.18001585,0.13107700
3.18668255,0.13443400
3.19334925,0.13336590
3.20001595,0.13061920
3.20668265,0.13351850
3.21334935,0.13184000
3.22001605,0.13016140
3.22668275,0.13336590
3.23334945,0.13229770
3.24001615,0.13122960
3.24668285,0.13351850
3.25334955,0.13184000
3.26001625,0.13092440
3.26668295,0.13504440
3.27334965,0.13153480
3.28001635,0.13031400
3.28668305,0.13351850
3.29334975,0.13275550
3.30001645,0.13031400
3.30668315,0.13397630
3.31334985,0.13229770
3.32001655,0.13092440
3.32668325,0.13489180
3.33334995,0.13153480
3.34001664,0.13077180
3.34668334,0.13443400
3.35335004,0.13138220
3.36001674,0.13245030
3.36668344,0.13397630
3.37335014,0.13245030
3.38001684,0.13153480
3.38668354,0.13397630
3.39335024,0.13138220
3.40001694,0.13138220
3.40668364,0.13351850
3.41335034,0.13214520
3.42001704,0.13077180
3.42668374,0.13351850
3.43335044,0.13122960
3.44001714,0.13153480
3.44668384,0.13351850
3.45335054,0.13229770
3.46001724,0.13077180
3.46668394,0.13458660
3.47335064,0.13229770
3.48001734,0.13122960
3.48668404,0.13260290
3.49335074,0.13351850
3.50001744,0.13061920
3.50668414,0.13336590
3.51335084,0.13153480
3.52001754,0.13077180
3.52668424,0.13428140
3.53335094,0.13184000
3.54001764,0.13031400
3.54668434,0.13397630
3.55335104,0.13153480
3.56001774,0.12955110
3.56668444,0.13565480
3.57335114,0.13245030
3.58001784,0.13061920
3.58668454,0.13367110
3.59335124,0.13122960
3.60001794,0.13138220
3.60668464,0.13382370
3.61335134,0.13199250
3.62001804,0.13153480
3.62668474,0.13397630
3.63335144,0.13184000
3.64001814,0.12909330
3.64668484,0.13458660
3.65335154,0.13184000
3.66001824,0.13199250
3.66668494,0.13382370
3.67335164,0.13153480
3.68001834,0.13107700
3.68668504,0.13382370
3.69335174,0.13275550
3.70001844,0.12970370
3.70668514,0.13336590
3.71335184,0.13214520
3.72001854,0.12955110
3.72668524,0.13367110
3.73335194,0.13229770
3.74001864,0.12985630
3.74668534,0.13260290
3.75335204,0.13092440
3.76001874,0.13077180
3.76668544,0.13336590
3.77335214,0.13122960
3.78001884,0.13031400
3.78668554,0.13336590
3.79335224,0.13092440
3.80001894,0.12909330
3.80668564,0.13306070
3.81335234,0.13260290
3.82001904,0.12970370
3.82668574,0.13306070
3.83335244,0.13153480
3.84001914,0.13000880
3.84668584,0.13321330
3.85335254,0.13153480
3.86001924,0.13000880
3.86668594,0.13245030
3.87335264,0.13031400
3.88001934,0.13061920
3.88668604,0.13336590
3.89335274,0.13153480
3.90001944,0.13016140
3.90668614,0.13473920
3.91335284,0.13138220
3.92001954,0.13000880
3.92668624,0.13245030
3.93335294,0.13245030
3.94001964,0.13077180
3.94668633,0.13306070
3.95335303,0.13153480
3.96001973,0.13031400
3.96668643,0.13397630
3.97335313,0.13245030
3.98001983,0.12939850
3.98668653,0.13367110
3.99335323,0.13260290
4.00001993,0.13092440
4.00668663,0.13306070
4.01335333,0.13138220
4.02002003,0.13031400
4.02668673,0.13336590
4.03335343,0.13275550
4.04002013,0.12970370
4.04668683,0.13229770
4.05335353,0.13199250
4.06002023,0.13016140
4.06668693,0.13367110
4.07335363,0.13214520
4.08002033,0.13077180
4.08668703,0.13367110
4.09335373,0.13184000
4.10002043,0.13000880
4.10668713,0.13306070
4.11335383,0.13214520
4.12002053,0.12939850
4.12668723,0.13443400
4.13335393,0.13306070
4.14002063,0.13061920
4.14668733,0.13336590
4.15335403,0.13138220
4.16002073,0.13122960
4.16668743,0.13397630
4.17335413,0.13214520
4.18002083,0.13092440
4.18668753,0.13306070
4.19335423,0.13153480
4.20002093,0.13092440
4.20668763,0.13367110
4.21335433,0.13321330
4.22002103,0.13061920
4.22668773,0.13275550
4.23335443,0.13321330
4.24002113,0.13016140
4.24668783,0.13336590
4.25335453,0.13214520
4.26002123,0.13077180
4.26668793,0.13382370
4.27335463,0.13260290
4.28002133,0.13199250
4.28668803,0.13321330
4.29335473,0.13245030
4.30002143,0.13199250
4.30668813,0.13336590
4.31335483,0.13184000
4.32002153,0.13092440
4.32668823,0.13443400
4.33335493,0.13306070
4.34002163,0.13077180
4.34668833,0.13397630
4.35335503,0.13275550
4.36002173,0.13092440
4.36668843,0.13351850
4.37335513,0.13382370
4.38002183,0.13092440
4.38668853,0.13351850
4.39335523,0.13245030
4.40002193,0.13016140
4.40668863,0.13367110
4.41335533,0.13229770
4.42002203,0.13077180
4.42668873,0.13458660
4.43335543,0.13245030
4.44002213,0.13184000
4.44668883,0.13321330
4.45335553,0.13199250
4.46002223,0.13184000
4.46668893,0.13306070
4.47335563,0.13245030
4.48002233,0.13031400
4.48668903,0.13351850
4.49335573,0.13153480
4.50002243,0.13138220
4.50668913,0.13397630
4.51335583,0.13153480
4.52002253,0.13122960
4.52668923,0.13351850
4.53335593,0.13275550
4.54002263,0.13016140
4.54668933,0.13382370
4.55335602,0.13229770
4.56002272,0.13016140
4.56668942,0.13260290
4.57335612,0.13306070
4.58002282,0.13077180
4.58668952,0.13306070
4.59335622,0.13229770
4.60002292,0.13031400
4.60668962,0.13306070
4.61335632,0.13199250
4.62002302,0.13031400
4.62668972,0.13397630
4.63335642,0.13367110
4.64002312,0.13107700
4.64668982,0.13336590
4.65335652,0.13245030
4.66002322,0.13107700
4.66668992,0.13397630
4.67335662,0.13199250
4.68002332,0.13077180
4.68669002,0.13382370
4.69335672,0.13397630
4.70002342,0.13122960
4.70669012,0.13336590
4.71335682,0.13245030
4.72002352,0.13016140
4.72669022,0.13351850
4.73335692,0.13031400
4.74002362,0.13092440
4.74669032,0.13321330
4.75335702,0.13245030
4.76002372,0.13092440
4.76669042,0.13260290
4.77335712,0.13199250
4.78002382,0.13061920
4.78669052,0.13428140
4.79335722,0.13245030
4.80002392,0.13092440
4.80669062,0.13351850
4.81335732,0.13245030
4.82002402,0.13092440
4.82669072,0.13336590
4.83335742,0.13275550
4.84002412,0.13184000
4.84669082,0.13229770
4.85335752,0.13260290
4.86002422,0.13138220
4.86669092,0.13306070
4.87335762,0.13336590
4.88002432,0.13092440
4.88669102,0.13382370
4.89335772,0.13260290
4.90002442,0.13092440
4.90669112,0.13382370
4.91335782,0.13199250
4.92002452,0.13061920
4.92669122,0.13367110
4.93335792,0.13260290
4.94002462,0.13061920
4.94669132,0.13306070
4.95335802,0.13260290
4.96002472,0.13077180
4.96669142,0.13336590
4.97335812,0.13245030
4.98002482,0.13061920
4.98669152,0.13367110
4.99335822,0.13245030
5.00002492,0.13061920
5.00669162,0.13321330
5.01335832,0.13306070
5.02002502,0.13092440
5.02669172,0.13428140
5.03335842,0.13321330
5.04002512,0.13077180
5.04669182,0.13351850
5.05335852,0.13122960
5.06002522,0.13000880
5.06669192,0.13397630
5.07335862,0.13275550
5.08002532,0.13214520
5.08669202,0.13367110
5.09335872,0.13245030
5.10002542,0.13031400
5.10669212,0.13275550
5.11335882,0.13214520
5.12002552,0.13031400
5.12669222,0.13351850
5.13335892,0.13306070
5.14002562,0.13138220
5.14669232,0.13199250
5.15335902,0.13306070
5.16002571,0.13031400
5.16669241,0.13336590
5.17335911,0.13275550
5.18002581,0.13016140
5.18669251,0.13306070
5.19335921,0.13199250
5.20002591,0.12955110
5.20669261,0.13229770
5.21335931,0.13199250
5.22002601,0.13138220
5.22669271,0.13321330
5.23335941,0.13184000
5.24002611,0.13000880
5.24669281,0.13275550
5.25335951,0.13260290
5.26002621,0.13031400
5.26669291,0.13336590
5.27335961,0.13245030
5.28002631,0.13061920
5.28669301,0.13306070
5.29335971,0.13260290
5.30002641,0.12985630
5.30669311,0.13321330
5.31335981,0.13245030
5.32002651,0.13107700
5.32669321,0.13321330
5.33335991,0.13107700
5.34002661,0.13107700
5.34669331,0.13199250
5.35336001,0.13199250
5.36002671,0.13031400
5.36669341,0.13077180
5.37336011,0.13260290
5.38002681,0.12894070
5.38669351,0.13321330
5.39336021,0.13199250
5.40002691,0.12894070
5.40669361,0.13443400
5.41336031,0.12939850
5.42002701,0.13077180
5.42669371,0.13107700
5.43336041,0.13229770
5.44002711,0.13016140
5.44669381,0.13092440
5.45336051,0.13397630
5.46002721,0.12939850
5.46669391,0.13214520
5.47336061,0.13138220
5.48002731,0.12970370
5.48669401,0.13275550
5.49336071,0.13184000
5.50002741,0.13061920
5.50669411,0.13184000
5.51336081,0.13184000
5.52002751,0.13000880
5.52669421,0.13122960
5.53336091,0.13214520
5.54002761,0.13016140
5.54669431,0.13245030
5.55336101,0.13214520
5.56002771,0.12939850
5.56669441,0.13321330
5.57336111,0.13275550
5.58002781,0.13138220
5.58669451,0.13122960
5.59336121,0.13275550
5.60002791,0.13000880
5.60669461,0.13153480
5.61336131,0.13565480
5.62002801,0.12878810
5.62669471,0.13382370
5.63336141,0.13260290
5.64002811,0.12985630
5.64669481,0.13489180
5.65336151,0.13138220
5.66002821,0.13138220
5.66669491,0.13351850
5.67336161,0.13153480
5.68002831,0.13199250
5.68669501,0.13153480
5.69336171,0.13260290
5.70002841,0.13138220
5.70669511,0.13199250
5.71336181,0.13351850
5.72002851,0.12863550
5.72669521,0.13397630
5.73336191,0.13245030
5.74002861,0.13092440
5.74669531,0.13397630
5.75336201,0.13214520
5.76002871,0.13061920
5.76669540,0.13229770
5.77336210,0.13229770
5.78002880,0.13031400
5.78669550,0.13321330
5.79336220,0.13306070
5.80002890,0.13107700
5.80669560,0.13382370
5.81336230,0.13260290
5.82002900,0.12985630
5.82669570,0.13367110
5.83336240,0.13306070
5.84002910,0.13000880
5.84669580,0.13275550
5.85336250,0.13260290
5.86002920,0.13107700
5.86669590,0.13321330
5.87336260,0.13275550
5.88002930,0.13214520
5.88669600,0.13199250
5.89336270,0.13519700
5.90002940,0.12878810
5.90669610,0.13382370
5.91336280,0.13214520
5.92002950,0.13031400
5.92669620,0.13565480
5.93336290,0.13122960
5.94002960,0.13336590
5.94669630,0.13260290
5.95336300,0.13397630
5.96002970,0.13031400
5.96669640,0.13306070
5.97336310,0.13367110
5.98002980,0.13000880
5.98669650,0.13428140
5.99336320,0.13107700
6.00002990,0.13306070
6.00669660,0.13184000
6.01336330,0.13443400
6.02003000,0.13016140
6.02669670,0.13321330
6.03336340,0.13367110
6.04003010,0.12863550
6.04669680,0.13626510
6.05336350,0.13077180
6.06003020,0.13245030
6.06669690,0.13229770
6.07336360,0.13153480
6.08003030,0.13184000
6.08669700,0.13199250
6.09336370,0.13443400
6.10003040,0.12985630
6.10669710,0.13321330
6.11336380,0.13351850
6.12003050,0.13138220
6.12669720,0.13397630
6.13336390,0.13229770
6.14003060,0.13077180
6.14669730,0.13321330
6.15336400,0.13336590
6.16003070,0.13061920
6.16669740,0.13306070
6.17336410,0.13336590
6.18003080,0.13092440
6.18669750,0.13367110
6.19336420,0.13260290
6.20003090,0.13138220
6.20669760,0.13214520
6.21336430,0.13428140
6.22003100,0.13153480
6.22669770,0.13260290
6.23336440,0.13336590
6.24003110,0.12955110
6.24669780,0.13397630
6.25336450,0.13245030
6.26003120,0.12985630
6.26669790,0.13275550
6.27336460,0.13260290
6.28003130,0.13107700
6.28669800,0.13321330
6.29336470,0.13397630
6.30003140,0.13153480
6.30669810,0.13351850
6.31336480,0.13275550
6.32003150,0.13031400
6.32669820,0.13260290
6.33336490,0.13397630
6.34003160,0.13092440
6.34669830,0.13397630
6.35336500,0.13336590
6.36003170,0.13061920
6.36669839,0.13367110
6.37336509,0.13229770
6.38003179,0.13214520
6.38669849,0.13153480
6.39336519,0.13504440
6.40003189,0.13061920
6.40669859,0.13351850
6.41336529,0.13443400
6.42003199,0.12970370
6.42669869,0.13534960
6.43336539,0.13245030
6.44003209,0.13153480
6.44669879,0.13458660
6.45336549,0.13122960
6.46003219,0.13382370
6.46669889,0.13214520
6.47336559,0.13397630
6.48003229,0.13122960
6.48669899,0.13336590
6.49336569,0.13534960
6.50003239,0.12909330
6.50669909,0.13580740
6.51336579,0.13199250
6.52003249,0.13061920
6.52669919,0.13489180
6.53336589,0.13077180
6.54003259,0.13153480
6.54669929,0.13214520
6.55336599,0.13397630
6.56003269,0.13214520
6.56669939,0.13077180
6.57336609,0.13428140
6.58003279,0.12985630
6.58669949,0.13275550
6.59336619,0.13351850
6.60003289,0.13092440
6.60669959,0.13260290
6.61336629,0.13275550
6.62003299,0.13092440
6.62669969,0.13321330
6.63336639,0.13260290
6.64003309,0.13061920
6.64669979,0.13214520
6.65336649,0.13351850
6.66003319,0.13031400
6.66669989,0.13321330
6.67336659,0.13397630
6.68003329,0.13122960
6.68669999,0.13275550
6.69336669,0.13321330
6.70003339,0.13107700
6.70670009,0.13306070
6.71336679,0.13397630
6.72003349,0.13092440
6.72670019,0.13321330
6.73336689,0.13321330
6.74003359,0.13092440
6.74670029,0.13367110
6.75336699,0.13245030
6.76003369,0.13229770
6.76670039,0.13306070
6.77336709,0.13382370
6.78003379,0.13016140
6.78670049,0.13306070
6.79336719,0.13397630
6.80003389,0.13061920
6.80670059,0.13397630
6.81336729,0.13275550
6.82003399,0.13107700
6.82670069,0.13260290
6.83336739,0.13306070
6.84003409,0.13138220
6.84670079,0.13336590
6.85336749,0.13336590
6.86003419,0.13077180
6.86670089,0.13336590
6.87336759,0.13321330
6.88003429,0.13122960
6.88670099,0.13351850
6.89336769,0.13443400
6.90003439,0.13061920
6.90670109,0.13336590
6.91336779,0.13306070
6.92003449,0.13107700
6.92670119,0.13336590
6.93336789,0.13306070
6.94003459,0.13184000
6.94670129,0.13367110
6.95336799,0.13321330
6.96003469,0.13031400
6.96670139,0.13321330
6.97336808,0.13229770
6.98003478,0.13077180
6.98670148,0.13321330
6.99336818,0.13321330
7.00003488,0.13153480
7.00670158,0.13351850
7.01336828,0.13245030
7.02003498,0.13077180
7.02670168,0.13199250
7.03336838,0.13245030
7.04003508,0.13184000
7.04670178,0.13214520
7.05336848,0.13306070
7.06003518,0.13153480
7.06670188,0.13336590
7.07336858,0.13321330
7.08003528,0.13077180
7.08670198,0.13245030
7.09336868,0.13367110
7.10003538,0.13031400
7.10670208,0.13260290
7.11336878,0.13397630
7.12003548,0.12985630
7.12670218,0.13321330
7.13336888,0.13321330
7.14003558,0.13061920
7.14670228,0.13351850
7.15336898,0.13336590
7.16003568,0.13031400
7.16670238,0.13306070
7.17336908,0.13275550
7.18003578,0.13061920
7.18670248,0.13382370
7.19336918,0.13306070
7.20003588,0.13077180
7.20670258,0.13260290
7.21336928,0.13321330
7.22003598,0.13016140
7.22670268,0.13275550
7.23336938,0.13321330
7.24003608,0.13107700
7.24670278,0.13214520
7.25336948,0.13336590
7.26003618,0.13092440
7.26670288,0.13351850
7.27336958,0.13214520
7.28003628,0.13214520
7.28670298,0.13306070
7.29336968,0.13428140
7.30003638,0.13061920
7.30670308,0.13245030
7.31336978,0.13260290
7.32003648,0.13077180
7.32670318,0.13275550
7.33336988,0.13306070
7.34003658,0.13138220
7.34670328,0.13214520
7.35336998,0.13397630
7.36003668,0.13092440
7.36670338,0.13382370
7.37337008,0.13275550
7.38003678,0.13000880
7.38670348,0.13351850
7.39337018,0.13336590
7.40003688,0.13000880
7.40670358,0.13351850
7.41337028,0.13275550
7.42003698,0.12985630
7.42670368,0.13229770
7.43337038,0.13245030
7.44003708,0.13061920
7.44670378,0.13153480
7.45337048,0.13321330
7.46003718,0.13077180
7.46670388,0.13138220
7.47337058,0.13367110
7.48003728,0.13031400
7.48670398,0.13245030
7.49337068,0.13306070
7.50003738,0.13138220
7.50670408,0.13260290
7.51337078,0.13336590
7.52003748,0.13153480
7.52670418,0.13306070
7.53337088,0.13367110
7.54003758,0.12970370
7.54670428,0.13214520
7.55337098,0.13336590
7.56003768,0.13031400
7.56670438,0.13260290
7.57337108,0.13229770
7.58003777,0.13153480
7.58670447,0.13184000
7.59337117,0.13428140
7.60003787,0.13107700
7.60670457,0.13199250
7.61337127,0.13321330
7.62003797,0.13122960
7.62670467,0.13275550
7.63337137,0.13199250
7.64003807,0.13092440
7.64670477,0.13275550
7.65337147,0.13336590
7.66003817,0.13031400
7.66670487,0.13321330
7.67337157,0.13306070
7.68003827,0.13138220
7.68670497,0.13260290
7.69337167,0.13336590
7.70003837,0.13061920
7.70670507,0.13214520
7.71337177,0.13229770
7.72003847,0.13107700
7.72670517,0.13306070
7.73337187,0.13275550
7.74003857,0.13092440
7.74670527,0.13321330
7.75337197,0.13275550
7.76003867,0.13016140
7.76670537,0.13351850
7.77337207,0.13275550
7.78003877,0.13122960
7.78670547,0.13153480
7.79337217,0.13351850
7.80003887,0.13092440
7.80670557,0.13275550
7.81337227,0.13260290
7.82003897,0.13107700
7.82670567,0.13260290
7.83337237,0.13367110
7.84003907,0.13031400
7.84670577,0.13199250
7.85337247,0.13336590
7.86003917,0.13107700
7.86670587,0.13245030
7.87337257,0.13351850
7.88003927,0.13092440
7.88670597,0.13260290
7.89337267,0.13321330
7.90003937,0.13016140
7.90670607,0.13214520
7.91337277,0.13321330
7.92003947,0.13031400
7.92670617,0.13275550
7.93337287,0.13229770
7.94003957,0.13000880
7.94670627,0.13229770
7.95337297,0.13321330
7.96003967,0.13077180
7.96670637,0.13351850
7.97337307,0.13275550
7.98003977,0.13016140
7.98670647,0.13321330
7.99337317,0.13306070
8.00003987,0.13000880
8.00670657,0.13214520
8.01337327,0.13306070
8.02003997,0.13031400
8.02670667,0.13245030
8.03337337,0.13351850
8.04004007,0.13092440
8.04670677,0.13260290
8.05337347,0.13245030
8.06004017,0.13107700
8.06670687,0.13229770
8.07337357,0.13153480
8.08004027,0.13077180
8.08670697,0.13336590
8.09337367,0.13382370
8.10004037,0.13092440
8.10670707,0.13397630
8.11337377,0.13382370
8.12004047,0.13092440
8.12670717,0.13321330
8.13337387,0.13351850
8.14004057,0.13077180
8.14670727,0.13214520
8.15337397,0.13199250
8.16004067,0.13107700
8.16670737,0.13260290
8.17337407,0.13260290
8.18004077,0.13107700
8.18670746,0.13275550
8.19337416,0.13428140
8.20004086,0.13122960
8.20670756,0.13321330
8.21337426,0.13306070
8.22004096,0.13092440
8.22670766,0.13275550
8.23337436,0.13351850
8.24004106,0.13000880
8.24670776,0.13306070
8.25337446,0.13367110
8.26004116,0.12970370
8.26670786,0.13306070
8.27337456,0.13260290
8.28004126,0.13077180
8.28670796,0.13245030
8.29337466,0.13336590
8.30004136,0.13000880
8.30670806,0.13306070
8.31337476,0.13275550
8.32004146,0.13077180
8.32670816,0.13321330
8.33337486,0.13351850
8.34004156,0.13138220
8.34670826,0.13199250
8.35337496,0.13336590
8.36004166,0.13092440
8.36670836,0.13229770
8.37337506,0.13184000
8.38004176,0.13107700
8.38670846,0.13245030
8.39337516,0.13397630
8.40004186,0.13138220
8.40670856,0.13153480
8.41337526,0.13351850
8.42004196,0.13092440
8.42670866,0.13229770
8.43337536,0.13306070
8.44004206,0.13153480
8.44670876,0.13229770
8.45337546,0.13275550
8.46004216,0.12970370
8.46670886,0.13321330
8.47337556,0.13306070
8.48004226,0.13000880
8.48670896,0.13214520
8.49337566,0.13260290
8.50004236,0.13122960
8.50670906,0.13275550
8.51337576,0.13275550
8.52004246,0.13061920
8.52670916,0.13306070
8.53337586,0.13245030
8.54004256,0.13016140
8.54670926,0.13367110
8.55337596,0.13336590
8.56004266,0.13107700
8.56670936,0.13275550
8.57337606,0.13245030
8.58004276,0.12985630
8.58670946,0.13306070
8.59337616,0.13214520
8.60004286,0.12985630
8.60670956,0.13229770
8.61337626,0.13382370
8.62004296,0.13092440
8.62670966,0.13245030
8.63337636,0.13321330
8.64004306,0.13061920
8.64670976,0.13382370
8.65337646,0.13321330
8.66004316,0.13016140
8.66670986,0.13260290
8.67337656,0.13275550
8.68004326,0.12985630
8.68670996,0.13245030
8.69337666,0.13351850
8.70004336,0.13077180
8.70671006,0.13260290
8.71337676,0.13229770
8.72004346,0.13107700
8.72671016,0.13275550
8.73337686,0.13275550
8.74004356,0.13092440
8.74671026,0.13229770
8.75337696,0.13260290
8.76004366,0.13077180
8.76671036,0.13229770
8.77337706,0.13260290
8.78004376,0.13016140
8.78671046,0.13245030
8.79337715,0.13321330
8.80004385,0.13077180
8.80671055,0.13306070
8.81337725,0.13367110
8.82004395,0.12955110
8.82671065,0.13321330
8.83337735,0.13275550
8.84004405,0.13138220
8.84671075,0.13245030
8.85337745,0.13306070
8.86004415,0.13184000
8.86671085,0.13260290
8.87337755,0.13443400
8.88004425,0.13122960
8.88671095,0.13275550
8.89337765,0.13458660
8.90004435,0.13061920
8.90671105,0.13275550
8.91337775,0.13367110
8.92004445,0.13000880
8.92671115,0.13260290
8.93337785,0.13336590
8.94004455,0.13031400
8.94671125,0.13199250
8.95337795,0.13260290
8.96004465,0.13077180
8.96671135,0.13336590
8.97337805,0.13336590
8.98004475,0.13016140
8.98671145,0.13138220
8.99337815,0.13336590
9.00004485,0.13153480
9.00671155,0.13306070
9.01337825,0.13351850
9.02004495,0.13016140
9.02671165,0.13336590
9.03337835,0.13260290
9.04004505,0.13092440
9.04671175,0.13275550
9.05337845,0.13351850
9.06004515,0.13077180
9.06671185,0.13260290
9.07337855,0.13321330
9.08004525,0.13061920
9.08671195,0.13245030
9.09337865,0.13428140
9.10004535,0.12939850
9.10671205,0.13199250
9.11337875,0.13321330
9.12004545,0.13016140
9.12671215,0.13275550
9.13337885,0.13351850
9.14004555,0.13107700
9.14671225,0.13245030
9.15337895,0.13336590
9.16004565,0.13031400
9.16671235,0.13214520
9.17337905,0.13351850
9.18004575,0.13031400
9.18671245,0.13245030
9.19337915,0.13336590
9.20004585,0.13107700
9.20671255,0.13214520
9.21337925,0.13351850
9.22004595,0.13122960
9.22671265,0.13245030
9.23337935,0.13382370
9.24004605,0.13061920
9.24671275,0.13260290
9.25337945,0.13336590
9.26004615,0.13153480
9.26671285,0.13321330
9.27337955,0.13275550
9.28004625,0.13031400
9.28671295,0.13336590
9.29337965,0.13382370
9.30004635,0.13016140
9.30671305,0.13260290
9.31337975,0.13321330
9.32004645,0.13107700
9.32671315,0.13229770
9.33337985,0.13428140
9.34004655,0.13107700
9.34671325,0.13321330
9.35337995,0.13260290
9.36004665,0.13138220
9.36671335,0.13275550
9.37338005,0.13367110
9.38004675,0.13138220
9.38671345,0.13260290
9.39338015,0.13260290
9.40004684,0.13153480
9.40671354,0.13306070
9.41338024,0.13336590
9.42004694,0.13184000
9.42671364,0.13199250
9.43338034,0.13428140
9.44004704,0.13000880
9.44671374,0.13351850
9.45338044,0.13351850
9.46004714,0.13077180
9.46671384,0.13260290
9.47338054,0.13336590
9.48004724,0.13077180
9.48671394,0.13245030
9.49338064,0.13321330
9.50004734,0.13000880
9.50671404,0.13260290
9.51338074,0.13306070
9.52004744,0.13061920
9.52671414,0.13245030
9.53338084,0.13458660
9.54004754,0.13061920
9.54671424,0.13306070
9.55338094,0.13351850
9.56004764,0.13031400
9.56671434,0.13351850
9.57338104,0.13367110
9.58004774,0.13092440
9.58671444,0.13245030
9.59338114,0.13321330
9.60004784,0.12970370
9.60671454,0.13351850
9.61338124,0.13367110
9.62004794,0.13107700
9.62671464,0.13428140
9.63338134,0.13351850
9.64004804,0.13092440
9.64671474,0.13260290
9.65338144,0.13336590
9.66004814,0.12985630
9.66671484,0.13321330
9.67338154,0.13336590
9.68004824,0.13016140
9.68671494,0.13321330
9.69338164,0.13443400
9.70004834,0.13016140
9.70671504,0.13306070
9.71338174,0.13306070
9.72004844,0.13016140
9.72671514,0.13245030
9.73338184,0.13367110
9.74004854,0.13031400
9.74671524,0.13367110
9.75338194,0.13458660
9.76004864,0.13122960
9.76671534,0.13367110
9.77338204,0.13397630
9.78004874,0.13138220
9.78671544,0.13306070
9.79338214,0.13336590
9.80004884,0.13000880
9.80671554,0.13321330
9.81338224,0.13336590
9.82004894,0.13016140
9.82671564,0.13351850
9.83338234,0.13336590
9.84004904,0.13184000
9.84671574,0.13275550
9.85338244,0.13351850
9.86004914,0.13077180
9.86671584,0.13336590
9.87338254,0.13321330
9.88004924,0.13138220
9.88671594,0.13367110
9.89338264,0.13351850
9.90004934,0.13077180
9.90671604,0.13229770
9.91338274,0.13336590
9.92004944,0.13107700
9.92671614,0.13245030
9.93338284,0.13367110
9.94004954,0.13016140
9.94671624,0.13199250
9.95338294,0.13351850
9.96004964,0.13229770
9.96671634,0.13214520
9.97338304,0.13428140
9.98004974,0.13107700
9.98671644,0.13260290
9.99338314,0.13489180
10.00004984,0.13016140
10.00671653,0.13214520
10.01338323,0.13443400
10.02004993,0.13031400
10.02671663,0.13306070
10.03338333,0.13306070
10.04005003,0.13061920
10.04671673,0.13321330
10.05338343,0.13336590
10.06005013,0.13092440
10.06671683,0.13275550
10.07338353,0.13382370
10.08005023,0.13061920
10.08671693,0.13275550
10.09338363,0.13428140
10.10005033,0.13031400
10.10671703,0.13382370
10.11338373,0.13382370
10.12005043,0.13077180
10.12671713,0.13336590
10.13338383,0.13260290
10.14005053,0.13061920
10.14671723,0.13260290
10.15338393,0.13443400
10.16005063,0.12909330
10.16671733,0.13351850
10.17338403,0.13260290
10.18005073,0.13122960
10.18671743,0.13260290
10.19338413,0.13382370
10.20005083,0.13122960
10.20671753,0.13321330
10.21338423,0.13458660
10.22005093,0.13077180
10.22671763,0.13306070
10.23338433,0.13397630
10.24005103,0.13153480
10.24671773,0.13351850
10.25338443,0.13321330
10.26005113,0.13107700
10.26671783,0.13306070
10.27338453,0.13397630
10.28005123,0.13107700
10.28671793,0.13214520
10.29338463,0.13397630
10.30005133,0.13031400
10.30671803,0.13321330
10.31338473,0.13367110
10.32005143,0.13077180
10.32671813,0.13351850
10.33338483,0.13382370
10.34005153,0.13122960
10.34671823,0.13351850
10.35338493,0.13336590
10.36005163,0.13184000
10.36671833,0.13229770
10.37338503,0.13367110
10.38005173,0.13153480
10.38671843,0.13229770
10.39338513,0.13428140
10.40005183,0.13122960
10.40671853,0.13321330
10.41338523,0.13458660
10.42005193,0.13184000
10.42671863,0.13306070
10.43338533,0.13443400
10.44005203,0.13031400
10.44671873,0.13321330
10.45338543,0.13382370
10.46005213,0.13107700
10.46671883,0.13229770
10.47338553,0.13306070
10.48005223,0.13199250
10.48671893,0.13245030
10.49338563,0.13306070
10.50005233,0.13138220
10.50671903,0.13260290
10.51338573,0.13260290
10.52005243,0.13138220
10.52671913,0.13122960
10.53338583,0.13336590
10.54005253,0.13061920
10.54671923,0.13321330
10.55338593,0.13306070
10.56005263,0.13092440
10.56671933,0.13306070
10.57338603,0.13351850
10.58005273,0.13184000
10.58671943,0.13245030
10.59338613,0.13275550
10.60005283,0.13107700
10.60671953,0.13245030
10.61338622,0.13351850
10.62005292,0.13016140
10.62671962,0.13245030
10.63338632,0.13428140
10.64005302,0.13000880
10.64671972,0.13199250
10.65338642,0.13458660
10.66005312,0.13122960
10.66671982,0.13214520
10.67338652,0.13367110
10.68005322,0.13077180
10.68671992,0.13199250
10.69338662,0.13321330
10.70005332,0.13061920
10.70672002,0.13260290
10.71338672,0.13443400
10.72005342,0.12985630
10.72672012,0.13336590
10.73338682,0.13367110
10.74005352,0.13107700
10.74672022,0.13321330
10.75338692,0.13458660
10.76005362,0.13077180
10.76672032,0.13275550
10.77338702,0.13321330
10.78005372,0.13092440
10.78672042,0.13214520
10.79338712,0.13443400
10.80005382,0.13153480
10.80672052,0.13306070
10.81338722,0.13428140
10.82005392,0.13061920
10.82672062,0.13199250
10.83338732,0.13351850
10.84005402,0.13000880
10.84672072,0.13214520
10.85338742,0.13367110
10.86005412,0.13092440
10.86672082,0.13229770
10.87338752,0.13473920
10.88005422,0.13153480
10.88672092,0.13260290
10.89338762,0.13443400
10.90005432,0.13214520
10.90672102,0.13245030
10.91338772,0.13367110
10.92005442,0.13092440
10.92672112,0.13077180
10.93338782,0.13458660
10.94005452,0.13199250
10.94672122,0.13321330
10.95338792,0.13428140
10.96005462,0.13061920
10.96672132,0.13260290
10.97338802,0.13367110
10.98005472,0.13199250
10.98672142,0.13229770
10.99338812,0.13458660
11.00005482,0.13122960
11.00672152,0.13336590
11.01338822,0.13367110
11.02005492,0.13092440
11.02672162,0.13336590
11.03338832,0.13428140
11.04005502,0.13092440
11.04672172,0.13245030
11.05338842,0.13367110
11.06005512,0.13107700
11.06672182,0.13275550
11.07338852,0.13351850
11.08005522,0.13107700
11.08672192,0.13260290
11.09338862,0.13336590
11.10005532,0.13061920
11.10672202,0.13306070
11.11338872,0.13443400
11.12005542,0.13138220
11.12672212,0.13321330
11.13338882,0.13367110
11.14005552,0.13153480
11.14672222,0.13092440
11.15338892,0.13336590
11.16005562,0.13107700
11.16672232,0.13351850
11.17338902,0.13428140
11.18005572,0.13000880
11.18672242,0.13367110
11.19338912,0.13443400
11.20005582,0.13153480
11.20672252,0.13367110
11.21338922,0.13275550
11.22005591,0.13122960
11.22672261,0.13092440
11.23338931,0.13382370
11.24005601,0.13122960
11.24672271,0.13306070
11.25338941,0.13443400
11.26005611,0.13138220
11.26672281,0.13275550
11.27338951,0.13336590
11.28005621,0.13138220
11.28672291,0.13351850
11.29338961,0.13397630
11.30005631,0.13031400
11.30672301,0.13245030
11.31338971,0.13351850
11.32005641,0.13077180
11.32672311,0.13260290
11.33338981,0.13336590
11.34005651,0.13092440
11.34672321,0.13275550
11.35338991,0.13397630
11.36005661,0.13184000
11.36672331,0.13321330
11.37339001,0.13336590
11.38005671,0.13138220
11.38672341,0.13229770
11.39339011,0.13306070
11.40005681,0.13138220
11.40672351,0.13245030
11.41339021,0.13336590
11.42005691,0.13214520
11.42672361,0.13275550
11.43339031,0.13351850
11.44005701,0.13229770
11.44672371,0.13214520
11.45339041,0.13321330
11.46005711,0.13184000
11.46672381,0.13275550
11.47339051,0.13351850
11.48005721,0.13153480
11.48672391,0.13321330
11.49339061,0.13367110
11.50005731,0.13199250
11.50672401,0.13275550
11.51339071,0.13443400
11.52005741,0.13092440
11.52672411,0.13260290
11.53339081,0.13367110
11.54005751,0.13122960
11.54672421,0.13275550
11.55339091,0.13382370
11.56005761,0.13077180
11.56672431,0.13245030
11.57339101,0.13504440
11.58005771,0.13153480
11.58672441,0.13428140
11.59339111,0.13458660
11.60005781,0.13061920
11.60672451,0.13260290
11.61339121,0.13428140
11.62005791,0.13107700
11.62672461,0.13214520
11.63339131,0.13382370
11.64005801,0.13107700
11.64672471,0.13275550
11.65339141,0.13306070
11.66005811,0.13122960
11.66672481,0.13275550
11.67339151,0.13351850
11.68005821,0.13107700
11.68672491,0.13336590
11.69339161,0.13428140
11.70005831,0.13122960
11.70672501,0.13214520
11.71339171,0.13397630
11.72005841,0.13031400
11.72672511,0.13199250
11.73339181,0.13443400
11.74005851,0.13092440
11.74672521,0.13336590
11.75339191,0.13351850
11.76005861,0.13107700
11.76672531,0.13306070
11.77339201,0.13321330
11.78005871,0.13184000
11.78672541,0.13336590
11.79339211,0.13397630
11.80005881,0.13061920
11.80672551,0.13184000
11.81339221,0.13367110
11.82005891,0.13122960
11.82672560,0.13306070
11.83339230,0.13351850
11.84005900,0.13153480
11.84672570,0.13306070
11.85339240,0.13473920
11.86005910,0.13153480
11.86672580,0.13260290
11.87339250,0.13458660
11.88005920,0.13138220
11.88672590,0.13336590
11.89339260,0.13397630
11.90005930,0.13138220
11.90672600,0.13321330
11.91339270,0.13443400
11.92005940,0.13122960
11.92672610,0.13229770
11.93339280,0.13428140
11.94005950,0.13122960
11.94672620,0.13351850
11.95339290,0.13351850
11.96005960,0.13107700
11.96672630,0.13321330
11.97339300,0.13275550
11.98005970,0.13077180
11.98672640,0.13351850
11.99339310,0.13382370
12.00005980,0.13153480
12.00672650,0.13321330
12.01339320,0.13428140
12.02005990,0.13077180
12.02672660,0.13214520
12.03339330,0.13321330
12.04006000,0.13122960
12.04672670,0.13245030
12.05339340,0.13428140
12.06006010,0.13122960
12.06672680,0.13260290
12.07339350,0.13321330
12.08006020,0.13138220
12.08672690,0.13245030
12.09339360,0.13351850
12.10006030,0.13153480
12.10672700,0.13245030
12.11339370,0.13397630
12.12006040,0.13092440
12.12672710,0.13245030
12.13339380,0.13321330
12.14006050,0.13107700
12.14672720,0.13245030
12.15339390,0.13473920
12.16006060,0.13061920
12.16672730,0.13199250
12.17339400,0.13397630
12.18006070,0.13016140
12.18672740,0.13245030
12.19339410,0.13428140
12.20006080,0.13214520
12.20672750,0.13199250
12.21339420,0.13306070
12.22006090,0.13138220
12.22672760,0.13184000
12.23339430,0.13443400
12.24006100,0.13184000
12.24672770,0.13199250
12.25339440,0.13367110
12.26006110,0.13138220
12.26672780,0.13382370
12.27339450,0.13397630
12.28006120,0.13138220
12.28672790,0.13336590
12.29339460,0.13367110
12.30006130,0.13153480
12.30672800,0.13245030
12.31339470,0.13275550
12.32006140,0.13138220
12.32672810,0.13153480
12.33339480,0.13367110
12.34006150,0.13199250
12.34672820,0.13229770
12.35339490,0.13443400
12.36006160,0.13199250
12.36672830,0.13306070
12.37339500,0.13458660
12.38006170,0.13000880
12.38672840,0.13199250
12.39339510,0.13382370
12.40006180,0.13199250
12.40672850,0.13214520
12.41339520,0.13428140
12.42006190,0.13031400
12.42672860,0.13260290
12.43339529,0.13397630
12.44006199,0.13077180
12.44672869,0.13306070
12.45339539,0.13443400
12.46006209,0.13092440
12.46672879,0.13214520
12.47339549,0.13382370
12.48006219,0.13061920
12.48672889,0.13245030
12.49339559,0.13367110
12.50006229,0.13031400
12.50672899,0.13184000
12.51339569,0.13321330
12.52006239,0.13077180
12.52672909,0.13229770
12.53339579,0.13351850
12.54006249,0.13122960
12.54672919,0.13260290
12.55339589,0.13367110
12.56006259,0.13092440
12.56672929,0.13184000
12.57339599,0.13336590
12.58006269,0.13138220
12.58672939,0.13229770
12.59339609,0.13443400
12.60006279,0.13153480
12.60672949,0.13260290
12.61339619,0.13306070
12.62006289,0.13077180
12.62672959,0.13306070
12.63339629,0.13336590
12.64006299,0.13061920
12.64672969,0.13138220
12.65339639,0.13443400
12.66006309,0.13229770
12.66672979,0.13199250
12.67339649,0.13397630
12.68006319,0.13122960
12.68672989,0.13245030
