Time,Channel A
(s),(V)

0.00000000,0.35950800
0.00666670,0.36118660
0.01333340,0.36240730
0.02000010,0.35767690
0.02666680,0.36347540
0.03333350,0.36027100
0.04000020,0.35935540
0.04666690,0.36149170
0.05333360,0.36027100
0.06000030,0.36072880
0.06666700,0.35905030
0.07333370,0.36225470
0.08000040,0.35981320
0.08666710,0.35981320
0.09333380,0.36301770
0.10000050,0.35737170
0.10666720,0.36240730
0.11333390,0.36240730
0.12000060,0.35981320
0.12666730,0.36332290
0.13333400,0.35798210
0.14000070,0.36072880
0.14666740,0.35935540
0.15333410,0.36088140
0.16000080,0.36149170
0.16666750,0.35828730
0.17333420,0.36103400
0.18000090,0.35905030
0.18666760,0.36072880
0.19333430,0.36362800
0.20000100,0.35874510
0.20666770,0.36194950
0.21333440,0.36225470
0.22000110,0.35874510
0.22666780,0.36271250
0.23333450,0.35935540
0.24000120,0.35966060
0.24666790,0.36225470
0.25333460,0.36027100
0.26000130,0.35828730
0.26666800,0.36164430
0.27333470,0.36103400
0.28000140,0.35966060
0.28666810,0.36118660
0.29333480,0.36027100
0.30000150,0.35920290
0.30666819,0.36072880
0.31333489,0.36271250
0.32000159,0.35920290
0.32666829,0.36072880
0.33333499,0.36103400
0.34000169,0.35691400
0.34666839,0.36103400
0.35333509,0.36118660
0.36000179,0.35966060
0.36666849,0.36103400
0.37333519,0.36072880
0.38000189,0.35859250
0.38666859,0.36072880
0.39333529,0.36179690
0.40000199,0.35798210
0.40666869,0.36072880
0.41333539,0.36225470
0.42000209,0.35828730
0.42666879,0.36179690
0.43333549,0.36286510
0.44000219,0.35859250
0.44666889,0.36149170
0.45333559,0.36194950
0.46000229,0.36057620
0.46666899,0.36149170
0.47333569,0.36042360
0.48000239,0.35843990
0.48666909,0.36088140
0.49333579,0.36317030
0.50000249,0.35874510
0.50666919,0.36088140
0.51333589,0.35981320
0.52000259,0.35981320
0.52666929,0.35981320
0.53333599,0.36118660
0.54000269,0.35935540
0.54666939,0.35981320
0.55333609,0.36286510
0.56000279,0.35431990
0.56666949,0.36225470
0.57333619,0.35981320
0.58000289,0.35981320
0.58666959,0.36286510
0.59333629,0.35813470
0.60000299,0.36042360
0.60666969,0.35935540
0.61333639,0.36286510
0.62000309,0.35935540
0.62666979,0.35859250
0.63333649,0.36317030
0.64000319,0.35798210
0.64666989,0.36332290
0.65333659,0.36103400
0.66000329,0.35950800
0.66666999,0.36027100
0.67333669,0.36118660
0.68000339,0.36072880
0.68667009,0.35905030
0.69333679,0.36103400
0.70000349,0.35813470
0.70667019,0.36042360
0.71333689,0.36286510
0.72000359,0.35737170
0.72667029,0.36042360
0.73333699,0.36164430
0.74000369,0.35905030
0.74667039,0.35966060
0.75333709,0.36057620
0.76000379,0.35828730
0.76667049,0.36072880
0.77333719,0.36149170
0.78000389,0.35767690
0.78667059,0.35996580
0.79333729,0.36210210
0.80000399,0.36103400
0.80667069,0.35996580
0.81333739,0.36149170
0.82000409,0.35996580
0.82667079,0.35996580
0.83333749,0.36317030
0.84000419,0.35874510
0.84667089,0.35981320
0.85333759,0.36240730
0.86000429,0.35905030
0.86667099,0.36118660
0.87333769,0.36118660
0.88000439,0.35996580
0.88667109,0.36072880
0.89333779,0.36072880
0.90000449,0.35981320
0.90667119,0.35782950
0.91333788,0.36164430
0.92000458,0.35981320
0.92667128,0.35859250
0.93333798,0.36332290
0.94000468,0.35996580
0.94667138,0.35950800
0.95333808,0.36103400
0.96000478,0.35905030
0.96667148,0.35920290
0.97333818,0.36042360
0.98000488,0.35782950
0.98667158,0.35828730
0.99333828,0.36103400
1.00000498,0.35859250
1.00667168,0.35874510
1.01333838,0.36149170
1.02000508,0.35874510
1.02667178,0.36042360
1.03333848,0.36225470
1.04000518,0.35843990
1.04667188,0.35966060
1.05333858,0.36057620
1.06000528,0.35843990
1.06667198,0.35966060
1.07333868,0.36301770
1.08000538,0.35920290
1.08667208,0.35966060
1.09333878,0.36149170
1.10000548,0.35813470
1.10667218,0.35966060
1.11333888,0.36194950
1.12000558,0.35828730
1.12667228,0.35813470
1.13333898,0.36240730
1.14000568,0.35874510
1.14667238,0.36027100
1.15333908,0.36057620
1.16000578,0.35920290
1.16667248,0.35981320
1.17333918,0.36057620
1.18000588,0.35981320
1.18667258,0.35874510
1.19333928,0.36164430
1.20000598,0.36042360
1.20667268,0.35874510
1.21333938,0.36164430
1.22000608,0.35843990
1.22667278,0.35966060
1.23333948,0.36149170
1.24000618,0.35935540
1.24667288,0.36164430
1.25333958,0.35950800
1.26000628,0.36194950
1.26667298,0.35843990
1.27333968,0.36164430
1.28000638,0.35935540
1.28667308,0.35874510
1.29333978,0.36439100
1.30000648,0.35966060
1.30667318,0.35935540
1.31333988,0.36301770
1.32000658,0.35706660
1.32667328,0.36210210
1.33333998,0.36149170
1.34000668,0.36072880
1.34667338,0.36057620
1.35334008,0.36072880
1.36000678,0.35996580
1.36667348,0.35859250
1.37334018,0.36286510
1.38000688,0.35966060
1.38667358,0.35920290
1.39334028,0.36164430
1.40000698,0.36042360
1.40667368,0.35874510
1.41334038,0.36210210
1.42000708,0.35920290
1.42667378,0.35950800
1.43334048,0.36088140
1.44000718,0.35905030
1.44667388,0.35920290
1.45334058,0.36194950
1.46000728,0.36042360
1.46667398,0.35920290
1.47334068,0.36179690
1.48000738,0.36042360
1.48667408,0.36057620
1.49334078,0.36210210
1.50000748,0.35996580
1.50667418,0.36057620
1.51334088,0.36042360
1.52000757,0.35950800
1.52667427,0.35920290
1.53334097,0.36164430
1.54000767,0.36042360
1.54667437,0.35843990
1.55334107,0.36179690
1.56000777,0.36027100
1.56667447,0.36042360
1.57334117,0.36194950
1.58000787,0.35905030
1.58667457,0.36027100
1.59334127,0.36088140
1.60000797,0.35981320
1.60667467,0.35981320
1.61334137,0.36210210
1.62000807,0.35874510
1.62667477,0.35905030
1.63334147,0.36317030
1.64000817,0.35966060
1.64667487,0.36057620
1.65334157,0.36057620
1.66000827,0.35920290
1.66667497,0.35935540
1.67334167,0.36118660
1.68000837,0.35966060
1.68667507,0.35981320
1.69334177,0.36164430
1.70000847,0.36027100
1.70667517,0.35798210
1.71334187,0.36317030
1.72000857,0.36088140
1.72667527,0.35966060
1.73334197,0.36271250
1.74000867,0.36118660
1.74667537,0.35950800
1.75334207,0.36057620
1.76000877,0.36072880
1.76667547,0.35981320
1.77334217,0.36225470
1.78000887,0.35981320
1.78667557,0.35966060
1.79334227,0.36225470
1.80000897,0.35996580
1.80667567,0.35920290
1.81334237,0.36240730
1.82000907,0.35950800
1.82667577,0.35966060
1.83334247,0.36194950
1.84000917,0.35920290
1.84667587,0.35782950
1.85334257,0.36179690
1.86000927,0.35920290
1.86667597,0.35874510
1.87334267,0.36164430
1.88000937,0.35813470
1.88667607,0.35950800
1.89334277,0.36179690
1.90000947,0.35996580
1.90667617,0.35920290
1.91334287,0.36179690
1.92000957,0.36072880
1.92667627,0.35920290
1.93334297,0.36240730
1.94000967,0.36027100
1.94667637,0.35981320
1.95334307,0.36225470
1.96000977,0.35981320
1.96667647,0.35813470
1.97334317,0.36240730
1.98000987,0.36179690
1.98667657,0.35828730
1.99334327,0.36393320
2.00000997,0.36042360
2.00667667,0.35859250
2.01334337,0.36179690
2.02001007,0.36057620
2.02667677,0.35782950
2.03334347,0.36439100
2.04001017,0.35874510
2.04667687,0.35859250
2.05334357,0.36164430
2.06001027,0.35905030
2.06667697,0.36149170
2.07334367,0.36164430
2.08001037,0.36149170
2.08667707,0.35798210
2.09334377,0.36347540
2.10001047,0.36118660
2.10667717,0.35905030
2.11334387,0.36347540
2.12001057,0.36072880
2.12667726,0.35966060
2.13334396,0.36194950
2.14001066,0.35996580
2.14667736,0.36103400
2.15334406,0.36149170
2.16001076,0.36179690
2.16667746,0.35920290
2.17334416,0.36210210
2.18001086,0.36057620
2.18667756,0.35813470
2.19334426,0.36317030
2.20001096,0.35920290
2.20667766,0.35935540
2.21334436,0.36149170
2.22001106,0.36057620
2.22667776,0.35966060
2.23334446,0.36164430
2.24001116,0.36240730
2.24667786,0.35874510
2.25334456,0.36210210
2.26001126,0.36042360
2.26667796,0.36072880
2.27334466,0.36332290
2.28001136,0.36271250
2.28667806,0.35798210
2.29334476,0.36408580
2.30001146,0.36103400
2.30667816,0.35981320
2.31334486,0.36423840
2.32001156,0.36103400
2.32667826,0.36072880
2.33334496,0.36454360
2.34001166,0.36179690
2.34667836,0.35874510
2.35334506,0.36362800
2.36001176,0.36103400
2.36667846,0.35905030
2.37334516,0.36423840
2.38001186,0.36027100
2.38667856,0.35874510
2.39334526,0.36317030
2.40001196,0.35905030
2.40667866,0.35996580
2.41334536,0.35950800
2.42001206,0.36317030
2.42667876,0.35996580
2.43334546,0.36210210
2.44001216,0.36057620
2.44667886,0.35935540
2.45334556,0.36347540
2.46001226,0.35966060
2.46667896,0.35981320
2.47334566,0.36286510
2.48001236,0.36088140
2.48667906,0.36072880
2.49334576,0.36194950
2.50001246,0.36103400
2.50667916,0.35950800
2.51334586,0.36301770
2.52001256,0.36210210
2.52667926,0.36027100
2.53334596,0.36271250
2.54001266,0.36179690
2.54667936,0.35813470
2.55334606,0.36149170
2.56001276,0.36225470
2.56667946,0.35874510
2.57334616,0.36317030
2.58001286,0.36317030
2.58667956,0.35843990
2.59334626,0.36393320
2.60001296,0.36271250
2.60667966,0.35935540
2.61334636,0.36439100
2.62001306,0.36194950
2.62667976,0.35905030
2.63334646,0.36362800
2.64001316,0.36240730
2.64667986,0.35996580
2.65334656,0.36362800
2.66001326,0.36149170
2.66667996,0.35935540
2.67334666,0.36286510
2.68001336,0.36210210
2.68668006,0.35935540
2.69334676,0.36347540
2.70001346,0.36118660
2.70668016,0.35981320
2.71334686,0.36332290
2.72001356,0.36088140
2.72668026,0.36072880
2.73334695,0.36271250
2.74001365,0.35996580
2.74668035,0.36210210
2.75334705,0.36179690
2.76001375,0.36301770
2.76668045,0.35966060
2.77334715,0.36164430
2.78001385,0.36332290
2.78668055,0.35950800
2.79334725,0.36210210
2.80001395,0.36164430
2.80668065,0.35905030
2.81334735,0.36271250
2.82001405,0.36179690
2.82668075,0.36027100
2.83334745,0.36423840
2.84001415,0.36210210
2.84668085,0.36027100
2.85334755,0.36286510
2.86001425,0.36225470
2.86668095,0.35996580
2.87334765,0.36271250
2.88001435,0.36225470
2.88668105,0.35905030
2.89334775,0.36317030
2.90001445,0.36149170
2.90668115,0.35843990
2.91334785,0.36332290
2.92001455,0.36301770
2.92668125,0.35813470
2.93334795,0.36317030
2.94001465,0.36301770
2.94668135,0.35950800
2.95334805,0.36286510
2.96001475,0.36027100
2.96668145,0.35935540
2.97334815,0.36317030
2.98001485,0.36210210
2.98668155,0.35966060
2.99334825,0.36347540
3.00001495,0.36042360
3.00668165,0.35920290
3.01334835,0.36286510
3.02001505,0.36103400
3.02668175,0.36042360
3.03334845,0.36149170
3.04001515,0.36118660
3.04668185,0.35996580
3.05334855,0.36271250
3.06001525,0.36149170
3.06668195,0.36027100
3.07334865,0.36286510
3.08001535,0.36240730
3.08668205,0.35950800
3.09334875,0.36240730
3.10001545,0.36103400
3.10668215,0.35843990
3.11334885,0.36317030
3.12001555,0.36240730
3.12668225,0.35859250
3.13334895,0.36210210
3.14001565,0.36164430
3.14668235,0.36057620
3.15334905,0.36225470
3.16001575,0.36301770
3.16668245,0.35843990
3.17334915,0.36210210
3.18001585,0.36210210
3.18668255,0.35935540
3.19334925,0.36179690
3.20001595,0.36271250
3.20668265,0.35843990
3.21334935,0.36317030
3.22001605,0.36103400
3.22668275,0.35981320
3.23334945,0.36271250
3.24001615,0.36179690
3.24668285,0.35859250
3.25334955,0.36210210
3.26001625,0.36103400
3.26668295,0.35996580
3.27334965,0.36225470
3.28001635,0.36286510
3.28668305,0.35996580
3.29334975,0.36301770
3.30001645,0.36057620
3.30668315,0.36194950
3.31334985,0.35935540
3.32001655,0.36332290
3.32668325,0.35859250
3.33334995,0.35966060
3.34001664,0.36408580
3.34668334,0.35538800
3.35335004,0.36332290
3.36001674,0.36118660
3.36668344,0.35874510
3.37335014,0.36271250
3.38001684,0.36225470
3.38668354,0.36027100
3.39335024,0.36118660
3.40001694,0.36225470
3.40668364,0.35828730
3.41335034,0.36103400
3.42001704,0.36179690
3.42668374,0.35905030
3.43335044,0.36103400
3.44001714,0.36240730
3.44668384,0.35737170
3.45335054,0.36194950
3.46001724,0.36210210
3.46668394,0.35966060
3.47335064,0.36194950
3.48001734,0.36240730
3.48668404,0.35782950
3.49335074,0.36362800
3.50001744,0.36194950
3.50668414,0.35798210
3.51335084,0.36362800
3.52001754,0.36042360
3.52668424,0.36072880
3.53335094,0.36240730
3.54001764,0.36042360
3.54668434,0.36240730
3.55335104,0.35523550
3.56001774,0.36286510
3.56668444,0.35828730
3.57335114,0.36057620
3.58001784,0.36454360
3.58668454,0.35447250
3.59335124,0.36423840
3.60001794,0.35981320
3.60668464,0.35859250
3.61335134,0.36393320
3.62001804,0.35843990
3.62668474,0.36194950
3.63335144,0.35584580
3.64001814,0.36530660
3.64668484,0.35340430
3.65335154,0.36332290
3.66001824,0.36164430
3.66668494,0.35660880
3.67335164,0.36683250
3.68001834,0.35294650
3.68668504,0.37003690
3.69335174,0.35279400
3.70001844,0.36729030
3.70668514,0.35721920
3.71335184,0.35645620
3.72001854,0.37125770
3.72668524,0.34653770
3.73335194,0.37247840
3.74001864,0.35081030
3.74668534,0.36454360
3.75335204,0.36194950
3.76001874,0.35172580
3.76668544,0.37125770
3.77335214,0.34592730
3.78001884,0.37202060
3.78668554,0.35523550
3.79335224,0.35737170
3.80001894,0.37079990
3.80668564,0.34684290
3.81335234,0.37125770
3.82001904,0.35493030
3.82668574,0.36118660
3.83335244,0.36530660
3.84001914,0.35325180
3.84668584,0.37171550
3.85335254,0.35294650
3.86001924,0.36576430
3.86668594,0.35996580
3.87335264,0.35706660
3.88001934,0.36896880
3.88668604,0.35081030
3.89335274,0.36622210
3.90001944,0.35920290
3.90668614,0.35859250
3.91335284,0.36622210
3.92001954,0.35737170
3.92668624,0.36301770
3.93335294,0.35554060
3.94001964,0.36576430
3.94668633,0.35706660
3.95335303,0.36271250
3.96001973,0.36194950
3.96668643,0.35859250
3.97335313,0.36332290
3.98001983,0.35843990
3.98668653,0.36286510
3.99335323,0.35813470
4.00001993,0.36301770
4.00668663,0.35981320
4.01335333,0.35798210
4.02002003,0.36530660
4.02668673,0.35523550
4.03335343,0.36301770
4.04002013,0.36332290
4.04668683,0.36042360
4.05335353,0.36271250
4.06002023,0.36301770
4.06668693,0.36149170
4.07335363,0.35981320
4.08002033,0.36362800
4.08668703,0.36103400
4.09335373,0.36225470
4.10002043,0.36408580
4.10668713,0.35996580
4.11335383,0.36286510
4.12002053,0.36072880
4.12668723,0.36057620
4.13335393,0.36347540
4.14002063,0.36347540
4.14668733,0.36164430
4.15335403,0.36103400
4.16002073,0.36393320
4.16668743,0.36103400
4.17335413,0.36347540
4.18002083,0.36210210
4.18668753,0.35981320
4.19335423,0.36317030
4.20002093,0.36271250
4.20668763,0.36164430
4.21335433,0.36179690
4.22002103,0.36225470
4.22668773,0.36164430
4.23335443,0.36210210
4.24002113,0.36500140
4.24668783,0.36179690
4.25335453,0.36042360
4.26002123,0.36500140
4.26668793,0.36225470
4.27335463,0.36149170
4.28002133,0.36393320
4.28668803,0.36027100
4.29335473,0.36317030
4.30002143,0.36530660
4.30668813,0.36027100
4.31335483,0.36347540
4.32002153,0.36408580
4.32668823,0.36057620
4.33335493,0.36271250
4.34002163,0.36393320
4.34668833,0.36072880
4.35335503,0.36408580
4.36002173,0.36118660
4.36668843,0.35935540
4.37335513,0.36179690
4.38002183,0.36072880
4.38668853,0.36271250
4.39335523,0.35599840
4.40002193,0.36439100
4.40668863,0.36072880
4.41335533,0.35782950
4.42002203,0.36484880
4.42668873,0.35447250
4.43335543,0.36530660
4.44002213,0.36301770
4.44668883,0.35905030
4.45335553,0.36317030
4.46002223,0.35874510
4.46668893,0.36301770
4.47335563,0.35874510
4.48002233,0.36332290
4.48668903,0.36164430
4.49335573,0.36149170
4.50002243,0.36545910
4.50668913,0.35782950
4.51335583,0.36240730
4.52002253,0.36484880
4.52668923,0.35828730
4.53335593,0.36317030
4.54002263,0.36286510
4.54668933,0.35996580
4.55335602,0.36439100
4.56002272,0.36072880
4.56668942,0.36210210
4.57335612,0.36118660
4.58002282,0.36210210
4.58668952,0.36332290
4.59335622,0.35981320
4.60002292,0.36362800
4.60668962,0.36149170
4.61335632,0.36240730
4.62002302,0.36240730
4.62668972,0.36194950
4.63335642,0.36164430
4.64002312,0.36362800
4.64668982,0.36225470
4.65335652,0.36042360
4.66002322,0.36347540
4.66668992,0.36149170
4.67335662,0.36194950
4.68002332,0.36332290
4.68669002,0.36149170
4.69335672,0.36286510
4.70002342,0.36317030
4.70669012,0.36088140
4.71335682,0.36301770
4.72002352,0.36164430
4.72669022,0.36271250
4.73335692,0.36210210
4.74002362,0.36271250
4.74669032,0.36164430
4.75335702,0.36164430
4.76002372,0.36332290
4.76669042,0.36301770
4.77335712,0.36072880
4.78002382,0.36194950
4.78669052,0.36240730
4.79335722,0.35737170
4.80002392,0.36606950
4.80669062,0.36240730
4.81335732,0.35981320
4.82002402,0.36591690
4.82669072,0.35828730
4.83335742,0.35935540
4.84002412,0.36454360
4.84669082,0.35416730
4.85335752,0.36225470
4.86002422,0.36118660
4.86669092,0.35782950
4.87335762,0.36332290
4.88002432,0.35538800
4.88669102,0.36408580
4.89335772,0.35691400
4.90002442,0.36103400
4.90669112,0.36240730
4.91335782,0.35309920
4.92002452,0.36500140
4.92669122,0.35493030
4.93335792,0.36179690
4.94002462,0.36423840
4.94669132,0.35599840
4.95335802,0.36347540
4.96002472,0.36027100
4.96669142,0.36118660
4.97335812,0.36317030
4.98002482,0.36271250
4.98669152,0.36088140
4.99335822,0.35859250
5.00002492,0.36439100
5.00669162,0.36072880
5.01335832,0.36225470
5.02002502,0.36423840
5.02669172,0.35996580
5.03335842,0.36210210
5.04002512,0.36240730
5.04669182,0.36301770
5.05335852,0.36103400
5.06002522,0.36408580
5.06669192,0.36271250
5.07335862,0.36149170
5.08002532,0.36469620
5.08669202,0.36271250
5.09335872,0.36088140
5.10002542,0.36439100
5.10669212,0.36423840
5.11335882,0.36164430
5.12002552,0.36408580
5.12669222,0.36301770
5.13335892,0.36103400
5.14002562,0.36347540
5.14669232,0.36118660
5.15335902,0.35981320
5.16002571,0.36545910
5.16669241,0.36179690
5.17335911,0.35905030
5.18002581,0.36439100
5.18669251,0.36210210
5.19335921,0.36149170
5.20002591,0.36423840
5.20669261,0.36179690
5.21335931,0.36164430
5.22002601,0.36530660
5.22669271,0.36317030
5.23335941,0.36057620
5.24002611,0.36362800
5.24669281,0.36072880
5.25335951,0.36149170
5.26002621,0.36439100
5.26669291,0.36240730
5.27335961,0.36149170
5.28002631,0.36439100
5.28669301,0.36301770
5.29335971,0.36194950
5.30002641,0.36484880
5.30669311,0.36240730
5.31335981,0.36042360
5.32002651,0.36393320
5.32669321,0.36286510
5.33335991,0.36194950
5.34002661,0.36393320
5.34669331,0.36149170
5.35336001,0.36179690
5.36002671,0.36362800
5.36669341,0.36347540
5.37336011,0.36072880
5.38002681,0.36393320
5.38669351,0.36362800
5.39336021,0.36057620
5.40002691,0.36332290
5.40669361,0.36301770
5.41336031,0.36118660
5.42002701,0.36347540
5.42669371,0.36347540
5.43336041,0.36057620
5.44002711,0.36362800
5.44669381,0.36301770
5.45336051,0.36103400
5.46002721,0.36469620
5.46669391,0.36271250
5.47336061,0.36088140
5.48002731,0.36469620
5.48669401,0.36286510
5.49336071,0.36149170
5.50002741,0.36423840
5.50669411,0.36271250
5.51336081,0.36301770
5.52002751,0.36454360
5.52669421,0.36362800
5.53336091,0.36072880
5.54002761,0.36454360
5.54669431,0.36240730
5.55336101,0.36164430
5.56002771,0.36439100
5.56669441,0.36149170
5.57336111,0.36149170
5.58002781,0.36423840
5.58669451,0.36362800
5.59336121,0.36179690
5.60002791,0.36347540
5.60669461,0.36240730
5.61336131,0.36149170
5.62002801,0.36362800
5.62669471,0.36301770
5.63336141,0.36042360
5.64002811,0.36454360
5.64669481,0.36362800
5.65336151,0.36225470
5.66002821,0.36286510
5.66669491,0.36164430
5.67336161,0.36194950
5.68002831,0.35950800
5.68669501,0.36179690
5.69336171,0.36027100
5.70002841,0.36164430
5.70669511,0.36362800
5.71336181,0.35493030
5.72002851,0.36622210
5.72669521,0.35798210
5.73336191,0.35996580
5.74002861,0.36561170
5.74669531,0.35615100
5.75336201,0.36332290
5.76002871,0.35813470
5.76669540,0.36362800
5.77336210,0.36103400
5.78002880,0.36194950
5.78669550,0.36393320
5.79336220,0.35493030
5.80002890,0.36484880
5.80669560,0.35828730
5.81336230,0.36072880
5.82002900,0.36423840
5.82669570,0.35660880
5.83336240,0.36210210
5.84002910,0.36027100
5.84669580,0.36042360
5.85336250,0.35981320
5.86002920,0.36347540
5.86669590,0.36500140
5.87336260,0.35843990
5.88002930,0.36484880
5.88669600,0.35767690
5.89336270,0.36118660
5.90002940,0.36042360
5.90669610,0.36423840
5.91336280,0.36057620
5.92002950,0.35950800
5.92669620,0.36729030
5.93336290,0.35111550
5.94002960,0.37003690
5.94669630,0.35813470
5.95336300,0.35691400
5.96002970,0.36988430
5.96669640,0.35142060
5.97336310,0.36820580
5.98002980,0.35843990
5.98669650,0.36179690
5.99336320,0.36393320
6.00002990,0.35584580
6.00669660,0.36805320
6.01336330,0.35493030
6.02003000,0.36225470
6.02669670,0.36271250
6.03336340,0.35431990
6.04003010,0.36484880
6.04669680,0.35813470
6.05336350,0.36149170
6.06003020,0.36469620
6.06669690,0.36210210
6.07336360,0.36225470
6.08003030,0.36027100
6.08669700,0.36393320
6.09336370,0.35599840
6.10003040,0.36439100
6.10669710,0.36103400
6.11336380,0.35538800
6.12003050,0.36667990
6.12669720,0.35309920
6.13336390,0.36301770
6.14003060,0.36164430
6.14669730,0.35798210
6.15336400,0.36423840
6.16003070,0.35569320
6.16669740,0.36439100
6.17336410,0.35569320
6.18003080,0.36179690
6.18669750,0.36286510
6.19336420,0.35905030
6.20003090,0.36469620
6.20669760,0.35798210
6.21336430,0.36286510
6.22003100,0.35996580
6.22669770,0.36362800
6.23336440,0.36118660
6.24003110,0.36088140
6.24669780,0.36301770
6.25336450,0.35905030
6.26003120,0.36469620
6.26669790,0.35935540
6.27336460,0.36164430
6.28003130,0.36072880
6.28669800,0.36194950
6.29336470,0.36088140
6.30003140,0.36088140
6.30669810,0.36347540
6.31336480,0.35447250
6.32003150,0.36545910
6.32669820,0.35905030
6.33336490,0.35859250
6.34003160,0.36454360
6.34669830,0.35523550
6.35336500,0.36271250
6.36003170,0.35950800
6.36669839,0.36194950
6.37336509,0.36179690
6.38003179,0.35798210
6.38669849,0.36332290
6.39336519,0.35920290
6.40003189,0.36652730
6.40669859,0.36210210
6.41336529,0.35798210
6.42003199,0.36484880
6.42669869,0.36088140
6.43336539,0.36194950
6.44003209,0.36408580
6.44669879,0.35981320
6.45336549,0.36164430
6.46003219,0.36210210
6.46669889,0.36332290
6.47336559,0.36118660
6.48003229,0.36301770
6.48669899,0.36225470
6.49336569,0.35935540
6.50003239,0.36362800
6.50669909,0.36332290
6.51336579,0.35966060
6.52003249,0.36454360
6.52669919,0.35813470
6.53336589,0.35935540
6.54003259,0.36484880
6.54669929,0.36317030
6.55336599,0.36103400
6.56003269,0.36210210
6.56669939,0.36240730
6.57336609,0.36118660
6.58003279,0.36484880
6.58669949,0.36347540
6.59336619,0.36027100
6.60003289,0.36591690
6.60669959,0.36317030
6.61336629,0.36118660
6.62003299,0.36347540
6.62669969,0.36332290
6.63336639,0.36118660
6.64003309,0.36301770
6.64669979,0.36301770
6.65336649,0.35966060
6.66003319,0.36591690
6.66669989,0.36301770
6.67336659,0.35996580
6.68003329,0.36484880
6.68669999,0.36286510
6.69336669,0.36118660
6.70003339,0.36179690
6.70670009,0.36149170
6.71336679,0.36179690
6.72003349,0.36423840
6.72670019,0.36393320
6.73336689,0.36194950
6.74003359,0.36347540
6.74670029,0.36317030
6.75336699,0.36072880
6.76003369,0.36225470
6.76670039,0.36347540
6.77336709,0.36057620
6.78003379,0.36057620
6.78670049,0.36454360
6.79336719,0.35676140
6.80003389,0.36362800
6.80670059,0.36317030
6.81336729,0.35920290
6.82003399,0.36454360
6.82670069,0.35874510
6.83336739,0.36149170
6.84003409,0.36194950
6.84670079,0.36301770
6.85336749,0.36225470
6.86003419,0.35798210
6.86670089,0.36393320
6.87336759,0.35966060
6.88003429,0.36317030
6.88670099,0.36408580
6.89336769,0.35920290
6.90003439,0.36500140
6.90670109,0.36240730
6.91336779,0.36103400
6.92003449,0.36271250
6.92670119,0.36347540
6.93336789,0.36072880
6.94003459,0.36164430
6.94670129,0.36393320
6.95336799,0.36027100
6.96003469,0.36423840
6.96670139,0.36393320
6.97336808,0.36088140
6.98003478,0.36545910
6.98670148,0.36317030
6.99336818,0.36286510
7.00003488,0.36408580
7.00670158,0.36164430
7.01336828,0.36210210
7.02003498,0.36210210
7.02670168,0.36332290
7.03336838,0.36286510
7.04003508,0.36103400
7.04670178,0.36332290
7.05336848,0.36118660
7.06003518,0.36194950
7.06670188,0.36317030
7.07336858,0.35843990
7.08003528,0.36362800
7.08670198,0.36362800
7.09336868,0.35828730
7.10003538,0.36469620
7.10670208,0.36057620
7.11336878,0.36057620
7.12003548,0.36423840
7.12670218,0.36057620
7.13336888,0.36118660
7.14003558,0.35981320
7.14670228,0.36439100
7.15336898,0.36057620
7.16003568,0.36042360
7.16670238,0.36500140
7.17336908,0.35874510
7.18003578,0.36484880
7.18670248,0.36286510
7.19336918,0.35950800
7.20003588,0.36439100
7.20670258,0.36469620
7.21336928,0.36179690
7.22003598,0.35981320
7.22670268,0.36408580
7.23336938,0.36027100
7.24003608,0.36347540
7.24670278,0.36408580
7.25336948,0.35905030
7.26003618,0.36347540
7.26670288,0.36225470
7.27336958,0.36164430
7.28003628,0.36317030
7.28670298,0.36225470
7.29336968,0.36271250
7.30003638,0.36118660
7.30670308,0.36225470
7.31336978,0.36149170
7.32003648,0.35920290
7.32670318,0.36225470
7.33336988,0.35935540
7.34003658,0.36347540
7.34670328,0.36408580
7.35336998,0.36194950
7.36003668,0.36439100
7.36670338,0.36271250
7.37337008,0.36210210
7.38003678,0.35966060
7.38670348,0.36332290
7.39337018,0.36225470
7.40003688,0.36027100
7.40670358,0.36439100
7.41337028,0.35843990
7.42003698,0.36423840
7.42670368,0.36179690
7.43337038,0.35935540
7.44003708,0.36500140
7.44670378,0.35950800
7.45337048,0.36118660
7.46003718,0.36088140
7.46670388,0.36393320
7.47337058,0.36149170
7.48003728,0.35905030
7.48670398,0.36362800
7.49337068,0.35981320
7.50003738,0.36362800
7.50670408,0.36362800
7.51337078,0.35920290
7.52003748,0.36362800
7.52670418,0.36225470
7.53337088,0.36103400
7.54003758,0.36423840
7.54670428,0.36286510
7.55337098,0.36194950
7.56003768,0.35981320
7.56670438,0.36408580
7.57337108,0.36225470
7.58003777,0.36317030
7.58670447,0.36484880
7.59337117,0.35935540
7.60003787,0.36423840
7.60670457,0.36469620
7.61337127,0.36149170
7.62003797,0.36454360
7.62670467,0.36286510
7.63337137,0.36240730
7.64003807,0.36393320
7.64670477,0.36332290
7.65337147,0.36271250
7.66003817,0.36301770
7.66670487,0.36454360
7.67337157,0.36179690
7.68003827,0.36454360
7.68670497,0.36439100
7.69337167,0.36179690
7.70003837,0.36393320
7.70670507,0.36423840
7.71337177,0.35996580
7.72003847,0.36484880
7.72670517,0.36210210
7.73337187,0.35981320
7.74003857,0.36103400
7.74670527,0.36423840
7.75337197,0.36225470
7.76003867,0.36072880
7.76670537,0.36500140
7.77337207,0.35737170
7.78003877,0.36469620
7.78670547,0.36271250
7.79337217,0.36027100
7.80003887,0.36454360
7.80670557,0.35966060
7.81337227,0.36194950
7.82003897,0.36317030
7.82670567,0.36576430
7.83337237,0.36072880
7.84003907,0.36027100
7.84670577,0.36332290
7.85337247,0.36164430
7.86003917,0.36469620
7.86670587,0.36362800
7.87337257,0.35966060
7.88003927,0.36194950
7.88670597,0.36332290
7.89337267,0.36210210
7.90003937,0.36347540
7.90670607,0.36362800
7.91337277,0.35767690
7.92003947,0.36317030
7.92670617,0.36423840
7.93337287,0.36194950
7.94003957,0.36317030
7.94670627,0.36240730
7.95337297,0.36210210
7.96003967,0.36347540
7.96670637,0.36484880
7.97337307,0.36179690
7.98003977,0.36057620
7.98670647,0.36439100
7.99337317,0.36149170
8.00003987,0.36454360
8.00670657,0.36591690
8.01337327,0.36194950
8.02003997,0.36317030
8.02670667,0.36500140
8.03337337,0.35981320
8.04004007,0.36576430
8.04670677,0.35966060
8.05337347,0.36088140
8.06004017,0.35935540
8.06670687,0.36454360
8.07337357,0.36088140
8.08004027,0.36271250
8.08670697,0.36591690
8.09337367,0.36042360
8.10004037,0.36317030
8.10670707,0.36454360
8.11337377,0.36210210
8.12004047,0.36057620
8.12670717,0.36347540
8.13337387,0.35859250
8.14004057,0.36286510
8.14670727,0.36408580
8.15337397,0.36072880
8.16004067,0.36332290
8.16670737,0.36240730
8.17337407,0.36393320
8.18004077,0.36240730
8.18670746,0.36423840
8.19337416,0.36194950
8.20004086,0.36240730
8.20670756,0.36454360
8.21337426,0.35981320
8.22004096,0.36454360
8.22670766,0.36469620
8.23337436,0.36164430
8.24004106,0.36301770
8.24670776,0.36362800
8.25337446,0.36179690
8.26004116,0.36286510
8.26670786,0.36408580
8.27337456,0.36271250
8.28004126,0.36408580
8.28670796,0.36484880
8.29337466,0.36210210
8.30004136,0.36423840
8.30670806,0.36484880
8.31337476,0.36362800
8.32004146,0.36439100
8.32670816,0.36332290
8.33337486,0.35981320
8.34004156,0.36362800
8.34670826,0.36332290
8.35337496,0.36347540
8.36004166,0.35920290
8.36670836,0.36423840
8.37337506,0.35874510
8.38004176,0.36149170
8.38670846,0.36698510
8.39337516,0.35691400
8.40004186,0.36317030
8.40670856,0.36027100
8.41337526,0.35966060
8.42004196,0.36057620
8.42670866,0.36042360
8.43337536,0.36408580
8.44004206,0.36286510
8.44670876,0.36561170
8.45337546,0.36271250
8.46004216,0.35996580
8.46670886,0.36667990
8.47337556,0.36271250
8.48004226,0.36286510
8.48670896,0.36042360
8.49337566,0.35645620
8.50004236,0.36240730
8.50670906,0.36576430
8.51337576,0.36164430
8.52004246,0.36439100
8.52670916,0.35966060
8.53337586,0.36393320
8.54004256,0.36362800
8.54670926,0.36362800
8.55337596,0.36240730
8.56004266,0.35828730
8.56670936,0.36332290
8.57337606,0.36332290
8.58004276,0.36332290
8.58670946,0.36667990
8.59337616,0.36118660
8.60004286,0.35966060
8.60670956,0.36469620
8.61337626,0.36194950
8.62004296,0.36332290
8.62670966,0.36240730
8.63337636,0.35950800
8.64004306,0.36149170
8.64670976,0.36622210
8.65337646,0.36317030
8.66004316,0.36149170
8.66670986,0.36347540
8.67337656,0.35966060
8.68004326,0.36362800
8.68670996,0.36332290
8.69337666,0.36057620
8.70004336,0.36072880
8.70671006,0.36194950
8.71337676,0.36164430
8.72004346,0.36332290
8.72671016,0.36408580
8.73337686,0.36423840
8.74004356,0.35996580
8.74671026,0.36423840
8.75337696,0.35905030
8.76004366,0.35996580
8.76671036,0.36744280
8.77337706,0.35370950
8.78004376,0.36698510
8.78671046,0.35325180
8.79337715,0.36729030
8.80004385,0.35966060
8.80671055,0.35859250
8.81337725,0.37095250
8.82004395,0.34043400
8.82671065,0.37934510
8.83337735,0.34455400
8.84004405,0.36393320
8.84671075,0.36698510
8.85337745,0.33570360
8.86004415,0.37705620
8.86671085,0.34592730
8.87337755,0.37308880
8.88004425,0.35737170
8.88671095,0.35142060
8.89337765,0.37003690
8.90004435,0.34150210
8.90671105,0.37583540
8.91337775,0.34943690
8.92004445,0.35874510
8.92671115,0.36805320
8.93337785,0.34913180
8.94004455,0.37491990
8.94671125,0.35416730
8.95337795,0.36530660
8.96004465,0.35660880
8.96671135,0.36072880
8.97337805,0.36423840
8.98004475,0.35477770
8.98671145,0.36500140
8.99337815,0.35645620
9.00004485,0.35859250
9.00671155,0.36652730
9.01337825,0.35950800
9.02004495,0.36317030
9.02671165,0.36210210
9.03337835,0.35721920
9.04004505,0.36179690
9.04671175,0.36027100
9.05337845,0.36454360
9.06004515,0.35874510
9.06671185,0.36103400
9.07337855,0.36225470
9.08004525,0.35828730
9.08671195,0.36698510
9.09337865,0.35843990
9.10004535,0.36149170
9.10671205,0.36027100
9.11337875,0.35843990
9.12004545,0.36469620
9.12671215,0.35920290
9.13337885,0.36286510
9.14004555,0.35447250
9.14671225,0.36286510
9.15337895,0.36301770
9.16004565,0.35782950
9.16671235,0.36652730
9.17337905,0.35477770
9.18004575,0.36317030
9.18671245,0.36301770
9.19337915,0.36210210
9.20004585,0.36439100
9.20671255,0.35706660
9.21337925,0.36225470
9.22004595,0.35584580
9.22671265,0.36530660
9.23337935,0.36347540
9.24004605,0.35538800
9.24671275,0.36484880
9.25337945,0.35660880
9.26004615,0.36332290
9.26671285,0.36561170
9.27337955,0.36286510
9.28004625,0.35874510
9.28671295,0.36027100
9.29337965,0.36408580
9.30004635,0.36179690
9.30671305,0.36500140
9.31337975,0.35920290
9.32004645,0.36210210
9.32671315,0.36210210
9.33337985,0.36164430
9.34004655,0.36500140
9.34671325,0.35615100
9.35337995,0.36408580
9.36004665,0.35645620
9.36671335,0.36149170
9.37338005,0.36561170
9.38004675,0.35401470
9.38671345,0.36652730
9.39338015,0.35828730
9.40004684,0.36027100
9.40671354,0.36576430
9.41338024,0.35767690
9.42004694,0.36271250
9.42671364,0.35798210
9.43338034,0.36240730
9.44004704,0.35966060
9.44671374,0.36271250
9.45338044,0.36286510
9.46004714,0.35798210
9.46671384,0.36576430
9.47338054,0.35843990
9.48004724,0.36210210
9.48671394,0.36072880
9.49338064,0.35813470
9.50004734,0.36393320
9.50671404,0.36301770
9.51338074,0.36591690
9.52004744,0.35859250
9.52671414,0.36362800
9.53338084,0.36240730
9.54004754,0.36072880
9.54671424,0.36576430
9.55338094,0.35737170
9.56004764,0.36179690
9.56671434,0.36164430
9.57338104,0.36286510
9.58004774,0.36164430
9.58671444,0.36332290
9.59338114,0.36301770
9.60004784,0.35981320
9.60671454,0.36454360
9.61338124,0.36240730
9.62004794,0.36317030
9.62671464,0.36194950
9.63338134,0.35996580
9.64004804,0.36027100
9.64671474,0.36286510
9.65338144,0.36423840
9.66004814,0.36027100
9.66671484,0.36286510
9.67338154,0.35966060
9.68004824,0.35966060
9.68671494,0.36423840
9.69338164,0.36042360
9.70004834,0.35981320
9.70671504,0.36454360
9.71338174,0.36317030
9.72004844,0.36164430
9.72671514,0.36683250
9.73338184,0.36286510
9.74004854,0.35950800
9.74671524,0.36500140
9.75338194,0.36317030
9.76004864,0.36164430
9.76671534,0.36484880
9.77338204,0.36149170
9.78004874,0.36225470
9.78671544,0.36332290
9.79338214,0.36408580
9.80004884,0.36225470
9.80671554,0.36347540
9.81338224,0.36240730
9.82004894,0.36103400
9.82671564,0.36408580
9.83338234,0.36240730
9.84004904,0.36179690
9.84671574,0.36545910
9.85338244,0.36210210
9.86004914,0.36118660
9.86671584,0.36484880
9.87338254,0.36210210
9.88004924,0.36225470
9.88671594,0.36301770
9.89338264,0.36271250
9.90004934,0.35920290
9.90671604,0.36317030
9.91338274,0.36240730
9.92004944,0.36042360
9.92671614,0.36591690
9.93338284,0.36057620
9.94004954,0.35966060
9.94671624,0.36393320
9.95338294,0.36225470
9.96004964,0.36088140
9.96671634,0.36240730
9.97338304,0.36393320
9.98004974,0.35950800
9.98671644,0.36530660
9.99338314,0.36225470
10.00004984,0.36072880
10.00671653,0.36545910
10.01338323,0.36271250
10.02004993,0.35920290
10.02671663,0.36622210
10.03338333,0.36072880
10.04005003,0.36042360
10.04671673,0.36408580
10.05338343,0.36317030
10.06005013,0.36118660
10.06671683,0.36225470
10.07338353,0.36317030
10.08005023,0.35813470
10.08671693,0.36301770
10.09338363,0.36347540
10.10005033,0.35584580
10.10671703,0.36484880
10.11338373,0.35859250
10.12005043,0.36057620
10.12671713,0.36423840
10.13338383,0.36286510
10.14005053,0.36194950
10.14671723,0.36164430
10.15338393,0.36271250
10.16005063,0.35996580
10.16671733,0.36317030
10.17338403,0.36362800
10.18005073,0.36072880
10.18671743,0.36408580
10.19338413,0.36301770
10.20005083,0.36088140
10.20671753,0.36317030
10.21338423,0.36332290
10.22005093,0.36225470
10.22671763,0.36271250
10.23338433,0.36362800
10.24005103,0.36027100
10.24671773,0.36530660
10.25338443,0.36362800
10.26005113,0.36179690
10.26671783,0.36469620
10.27338453,0.36194950
10.28005123,0.36103400
10.28671793,0.36606950
10.29338463,0.36286510
10.30005133,0.36118660
10.30671803,0.36210210
10.31338473,0.36347540
10.32005143,0.36149170
10.32671813,0.36362800
10.33338483,0.36286510
10.34005153,0.35813470
10.34671823,0.36545910
10.35338493,0.36194950
10.36005163,0.36210210
10.36671833,0.36408580
10.37338503,0.36194950
10.38005173,0.36194950
10.38671843,0.36317030
10.39338513,0.36408580
10.40005183,0.36149170
10.40671853,0.36286510
10.41338523,0.36072880
10.42005193,0.35996580
10.42671863,0.36332290
10.43338533,0.36393320
10.44005203,0.36027100
10.44671873,0.36286510
10.45338543,0.36164430
10.46005213,0.36164430
10.46671883,0.36591690
10.47338553,0.36118660
10.48005223,0.36118660
10.48671893,0.36454360
10.49338563,0.35981320
10.50005233,0.36408580
10.50671903,0.36317030
10.51338573,0.36118660
10.52005243,0.36027100
10.52671913,0.35920290
10.53338583,0.36408580
10.54005253,0.35996580
10.54671923,0.36347540
10.55338593,0.36225470
10.56005263,0.35782950
10.56671933,0.36561170
10.57338603,0.36225470
10.58005273,0.36271250
10.58671943,0.36408580
10.59338613,0.36042360
10.60005283,0.36164430
10.60671953,0.36286510
10.61338622,0.36347540
10.62005292,0.36194950
10.62671962,0.36225470
10.63338632,0.36271250
10.64005302,0.36103400
10.64671972,0.36606950
10.65338642,0.36362800
10.66005312,0.36057620
