Time,Channel A
(s),(V)

0.00000000,2.01117000
0.00666670,2.01239100
0.01333340,2.01101700
0.02000010,2.00735500
0.02666680,2.01361100
0.03333350,2.00415100
0.04000020,2.01574800
0.04666690,2.00918600
0.05333360,2.01117000
0.06000030,2.01117000
0.06666700,2.00827100
0.07333370,2.00796500
0.08000040,2.01055900
0.08666710,2.01055900
0.09333380,2.00811800
0.10000050,2.01239100
0.10666720,2.00537100
0.11333390,2.01117000
0.12000060,2.01498500
0.12666730,2.00979600
0.13333400,2.00994900
0.14000070,2.01147500
0.14666740,2.00964400
0.15333410,2.00872800
0.16000080,2.01086400
0.16666750,2.00872800
0.17333420,2.00827100
0.18000090,2.01269600
0.18666760,2.01147500
0.19333430,2.01101700
0.20000100,2.01315400
0.20666770,2.01223800
0.21333440,2.01101700
0.22000110,2.01071200
0.22666780,2.00720200
0.23333450,2.01330600
0.24000120,2.00827100
0.24666790,2.01269600
0.25333460,2.00735500
0.26000130,2.01498500
0.26666800,2.01101700
0.27333470,2.01147500
0.28000140,2.01391600
0.28666810,2.01147500
0.29333480,2.01376400
0.30000150,2.01147500
0.30666819,2.01010200
0.31333489,2.00964400
0.32000159,2.00842300
0.32666829,2.01223800
0.33333499,2.00689700
0.34000169,2.01300100
0.34666839,2.01055900
0.35333509,2.01300100
0.36000179,2.01483200
0.36666849,2.00872800
0.37333519,2.01376400
0.38000189,2.00933900
0.38666859,2.01361100
0.39333529,2.01040700
0.40000199,2.01315400
0.40666869,2.01208500
0.41333539,2.01391600
0.42000209,2.01239100
0.42666879,2.00949100
0.43333549,2.01055900
0.44000219,2.01391600
0.44666889,2.01055900
0.45333559,2.01040700
0.46000229,2.01223800
0.46666899,2.01300100
0.47333569,2.01391600
0.48000239,2.00979600
0.48666909,2.01513700
0.49333579,2.01574800
0.50000249,2.00857600
0.50666919,2.01498500
0.51333589,2.01147500
0.52000259,2.01635800
0.52666929,2.01086400
0.53333599,2.01178000
0.54000269,2.01239100
0.54666939,2.01239100
0.55333609,2.01300100
0.56000279,2.01223800
0.56666949,2.01239100
0.57333619,2.01239100
0.58000289,2.01620500
0.58666959,2.01361100
0.59333629,2.01208500
0.60000299,2.01345900
0.60666969,2.01513700
0.61333639,2.01147500
0.62000309,2.01391600
0.62666979,2.01544200
0.63333649,2.01208500
0.64000319,2.01620500
0.64666989,2.01467900
0.65333659,2.01391600
0.66000329,2.01666300
0.66666999,2.01620500
0.67333669,2.01055900
0.68000339,2.01742600
0.68667009,2.01544200
0.69333679,2.01010200
0.70000349,2.01559500
0.70667019,2.01269600
0.71333689,2.01269600
0.72000359,2.01620500
0.72667029,2.01467900
0.73333699,2.01437400
0.74000369,2.01376400
0.74667039,2.01330600
0.75333709,2.01055900
0.76000379,2.01513700
0.76667049,2.01361100
0.77333719,2.01178000
0.78000389,2.01147500
0.78667059,2.01055900
0.79333729,2.01361100
0.80000399,2.01055900
0.80667069,2.01361100
0.81333739,2.01513700
0.82000409,2.01376400
0.82667079,2.01361100
0.83333749,2.01193300
0.84000419,2.01147500
0.84667089,2.01437400
0.85333759,2.00964400
0.86000429,2.01239100
0.86667099,2.01437400
0.87333769,2.01193300
0.88000439,2.01223800
0.88667109,2.01467900
0.89333779,2.01178000
0.90000449,2.01376400
0.90667119,2.01193300
0.91333788,2.01132200
0.92000458,2.01269600
0.92667128,2.01117000
0.93333798,2.01055900
0.94000468,2.01437400
0.94667138,2.01452700
0.95333808,2.01345900
0.96000478,2.01742600
0.96667148,2.01498500
0.97333818,2.01361100
0.98000488,2.01437400
0.98667158,2.01040700
0.99333828,2.01315400
1.00000498,2.01391600
1.00667168,2.01239100
1.01333838,2.01330600
1.02000508,2.01712100
1.02667178,2.01239100
1.03333848,2.01101700
1.04000518,2.01666300
1.04667188,2.01452700
1.05333858,2.00994900
1.06000528,2.01452700
1.06667198,2.00994900
1.07333868,2.00994900
1.08000538,2.00857600
1.08667208,2.01193300
1.09333878,2.00811800
1.10000548,2.01208500
1.10667218,2.01742600
1.11333888,2.00598200
1.12000558,2.01345900
1.12667228,2.00857600
1.13333898,2.01147500
1.14000568,2.01223800
1.14667238,2.00338700
1.15333908,2.01086400
1.16000578,2.00796500
1.16667248,2.01269600
1.17333918,2.00582900
1.18000588,2.01178000
1.18667258,2.01193300
1.19333928,2.01010200
1.20000598,2.01117000
1.20667268,2.00949100
1.21333938,2.01376400
1.22000608,2.01605300
1.22667278,2.00933900
1.23333948,2.00857600
1.24000618,2.01178000
1.24667288,2.01147500
1.25333958,2.00552400
1.26000628,2.01117000
1.26667298,2.00918600
1.27333968,2.01452700
1.28000638,2.01055900
1.28667308,2.00918600
1.29333978,2.01269600
1.30000648,2.00949100
1.30667318,2.01178000
1.31333988,2.00735500
1.32000658,2.00827100
1.32667328,2.01193300
1.33333998,2.01345900
1.34000668,2.00949100
1.34667338,2.01147500
1.35334008,2.00796500
1.36000678,2.01483200
1.36667348,2.01010200
1.37334018,2.00949100
1.38000688,2.01727300
1.38667358,2.01055900
1.39334028,2.00460800
1.40000698,2.01040700
1.40667368,2.00949100
1.41334038,2.00674500
1.42000708,2.01055900
1.42667378,2.00872800
1.43334048,2.01254300
1.44000718,2.01681600
1.44667388,2.00949100
1.45334058,2.00766000
1.46000728,2.01117000
1.46667398,2.01971500
1.47334068,2.00766000
1.48000738,2.00796500
1.48667408,2.01117000
1.49334078,2.01590000
1.50000748,2.00949100
1.50667418,2.00552400
1.51334088,2.00994900
1.52000757,2.01742600
1.52667427,2.01132200
1.53334097,2.00766000
1.54000767,2.00979600
1.54667437,2.01544200
1.55334107,2.01361100
1.56000777,2.00918600
1.56667447,2.01147500
1.57334117,2.01391600
1.58000787,2.01254300
1.58667457,2.01117000
1.59334127,2.01132200
1.60000797,2.01437400
1.60667467,2.01117000
1.61334137,2.00918600
1.62000807,2.01193300
1.62667477,2.01300100
1.63334147,2.01208500
1.64000817,2.01101700
1.64667487,2.01147500
1.65334157,2.01010200
1.66000827,2.01422200
1.66667497,2.01010200
1.67334167,2.00384500
1.68000837,2.01254300
1.68667507,2.01010200
1.69334177,2.00872800
1.70000847,2.00979600
1.70667517,2.01361100
1.71334187,2.01361100
1.72000857,2.01467900
1.72667527,2.01055900
1.73334197,2.00674500
1.74000867,2.01193300
1.74667537,2.01193300
1.75334207,2.00827100
1.76000877,2.01300100
1.76667547,2.00872800
1.77334217,2.01071200
1.78000887,2.01208500
1.78667557,2.00872800
1.79334227,2.00811800
1.80000897,2.01757900
1.80667567,2.01239100
1.81334237,2.00552400
1.82000907,2.00918600
1.82667577,2.01452700
1.83334247,2.00888100
1.84000917,2.01254300
1.84667587,2.01132200
1.85334257,2.01437400
1.86000927,2.01574800
1.86667597,2.00918600
1.87334267,2.00949100
1.88000937,2.01376400
1.88667607,2.01147500
1.89334277,2.00888100
1.90000947,2.01269600
1.90667617,2.01193300
1.91334287,2.01101700
1.92000957,2.00811800
1.92667627,2.01315400
1.93334297,2.00994900
1.94000967,2.01574800
1.94667637,2.01376400
1.95334307,2.00811800
1.96000977,2.01376400
1.96667647,2.01620500
1.97334317,2.00888100
1.98000987,2.00979600
1.98667657,2.01315400
1.99334327,2.01315400
2.00000997,2.01559500
2.00667667,2.01483200
2.01334337,2.01376400
2.02001007,2.01101700
2.02667677,2.01727300
2.03334347,2.01040700
2.04001017,2.01071200
2.04667687,2.01483200
2.05334357,2.00979600
2.06001027,2.01223800
2.06667697,2.01193300
2.07334367,2.01132200
2.08001037,2.01513700
2.08667707,2.01620500
2.09334377,2.00949100
2.10001047,2.01223800
2.10667717,2.01818900
2.11334387,2.01361100
2.12001057,2.01483200
2.12667726,2.01513700
2.13334396,2.01376400
2.14001066,2.01300100
2.14667736,2.01483200
2.15334406,2.00979600
2.16001076,2.01361100
2.16667746,2.01544200
2.17334416,2.01193300
2.18001086,2.01391600
2.18667756,2.01590000
2.19334426,2.01483200
2.20001096,2.01391600
2.20667766,2.01452700
2.21334436,2.01269600
2.22001106,2.01147500
2.22667776,2.01574800
2.23334446,2.01422200
2.24001116,2.01055900
2.24667786,2.01696800
2.25334456,2.01361100
2.26001126,2.01315400
2.26667796,2.01574800
2.27334466,2.01376400
2.28001136,2.01254300
2.28667806,2.01574800
2.29334476,2.01239100
2.30001146,2.01223800
2.30667816,2.01467900
2.31334486,2.01376400
2.32001156,2.01315400
2.32667826,2.01437400
2.33334496,2.01315400
2.34001166,2.01223800
2.34667836,2.01483200
2.35334506,2.01208500
2.36001176,2.01422200
2.36667846,2.01605300
2.37334516,2.01391600
2.38001186,2.01635800
2.38667856,2.01422200
2.39334526,2.01269600
2.40001196,2.01498500
2.40667866,2.01376400
2.41334536,2.01330600
2.42001206,2.01559500
2.42667876,2.01635800
2.43334546,2.01315400
2.44001216,2.01727300
2.44667886,2.01483200
2.45334556,2.01315400
2.46001226,2.01620500
2.46667896,2.01437400
2.47334566,2.01467900
2.48001236,2.01086400
2.48667906,2.01330600
2.49334576,2.00888100
2.50001246,2.00735500
2.50667916,2.01147500
2.51334586,2.01010200
2.52001256,2.00827100
2.52667926,2.00750800
2.53334596,2.00506600
2.54001266,2.01513700
2.54667936,2.01071200
2.55334606,2.00338700
2.56001276,2.00476100
2.56667946,2.01345900
2.57334616,2.00674500
2.58001286,2.00994900
2.58667956,2.01193300
2.59334626,2.01071200
2.60001296,2.01422200
2.60667966,2.01300100
2.61334636,2.00872800
2.62001306,2.01040700
2.62667976,2.00720200
2.63334646,2.01422200
2.64001316,2.00857600
2.64667986,2.01223800
2.65334656,2.00811800
2.66001326,2.00811800
2.66667996,2.01345900
2.67334666,1.99987800
2.68001336,2.01117000
2.68668006,2.01315400
2.69334676,2.00750800
2.70001346,2.01010200
2.70668016,2.00842300
2.71334686,2.00842300
2.72001356,2.01223800
2.72668026,2.01345900
2.73334695,2.00766000
2.74001365,2.00827100
2.74668035,2.01208500
2.75334705,2.00674500
2.76001375,2.01376400
2.76668045,2.01315400
2.77334715,2.01254300
2.78001385,2.00949100
2.78668055,2.01467900
2.79334725,2.01132200
2.80001395,2.01330600
2.80668065,2.01620500
2.81334735,2.00872800
2.82001405,2.01300100
2.82668075,2.01757900
2.83334745,2.00949100
2.84001415,2.01117000
2.84668085,2.01437400
2.85334755,2.01178000
2.86001425,2.01117000
2.86668095,2.01208500
2.87334765,2.00994900
2.88001435,2.01178000
2.88668105,2.01666300
2.89334775,2.01254300
2.90001445,2.01330600
2.90668115,2.01330600
2.91334785,2.01010200
2.92001455,2.01223800
2.92668125,2.01208500
2.93334795,2.00933900
2.94001465,2.01239100
2.94668135,2.01742600
2.95334805,2.00949100
2.96001475,2.01117000
2.96668145,2.01742600
2.97334815,2.01269600
2.98001485,2.01330600
2.98668155,2.01300100
2.99334825,2.01269600
3.00001495,2.01330600
3.00668165,2.01208500
3.01334835,2.01315400
3.02001505,2.01666300
3.02668175,2.01590000
3.03334845,2.01132200
3.04001515,2.01178000
3.04668185,2.01681600
3.05334855,2.01559500
3.06001525,2.01635800
3.06668195,2.01254300
3.07334865,2.01239100
3.08001535,2.01376400
3.08668205,2.01559500
3.09334875,2.01574800
3.10001545,2.01437400
3.10668215,2.01345900
3.11334885,2.01117000
3.12001555,2.01452700
3.12668225,2.01559500
3.13334895,2.01422200
3.14001565,2.00918600
3.14668235,2.01132200
3.15334905,2.01300100
3.16001575,2.01254300
3.16668245,2.01330600
3.17334915,2.01055900
3.18001585,2.01513700
3.18668255,2.01834200
3.19334925,2.00827100
3.20001595,2.00872800
3.20668265,2.01101700
3.21334935,2.01132200
3.22001605,2.01315400
3.22668275,2.01681600
3.23334945,2.01101700
3.24001615,2.01086400
3.24668285,2.01635800
3.25334955,2.01437400
3.26001625,2.01239100
3.26668295,2.01269600
3.27334965,2.01376400
3.28001635,2.01361100
3.28668305,2.01208500
3.29334975,2.01101700
3.30001645,2.01055900
3.30668315,2.01391600
3.31334985,2.01422200
3.32001655,2.01055900
3.32668325,2.01498500
3.33334995,2.01422200
3.34001664,2.01361100
3.34668334,2.01223800
3.35335004,2.01330600
3.36001674,2.01193300
3.36668344,2.01437400
3.37335014,2.01223800
3.38001684,2.01132200
3.38668354,2.01498500
3.39335024,2.01452700
3.40001694,2.01193300
3.40668364,2.01208500
3.41335034,2.01300100
3.42001704,2.01391600
3.42668374,2.01132200
3.43335044,2.00918600
3.44001714,2.01040700
3.44668384,2.01498500
3.45335054,2.00994900
3.46001724,2.00888100
3.46668394,2.00949100
3.47335064,2.00705000
3.48001734,2.01071200
3.48668404,2.00979600
3.49335074,2.00964400
3.50001744,2.01437400
3.50668414,2.01208500
3.51335084,2.00979600
3.52001754,2.01178000
3.52668424,2.01040700
3.53335094,2.01071200
3.54001764,2.01178000
3.54668434,2.01010200
3.55335104,2.00964400
3.56001774,2.00933900
3.56668444,2.01376400
3.57335114,2.00369300
3.58001784,2.00735500
3.58668454,2.01330600
3.59335124,2.01330600
3.60001794,2.01223800
3.60668464,2.00750800
3.61335134,2.00705000
3.62001804,2.01040700
3.62668474,2.01239100
3.63335144,2.00994900
3.64001814,2.00689700
3.64668484,2.00323500
3.65335154,2.01086400
3.66001824,2.00705000
3.66668494,2.01010200
3.67335164,2.00750800
3.68001834,2.00384500
3.68668504,2.01590000
3.69335174,2.00705000
3.70001844,2.00705000
3.70668514,2.01391600
3.71335184,2.01208500
3.72001854,2.00811800
3.72668524,2.00567700
3.73335194,2.01269600
3.74001864,2.01193300
3.74668534,2.00064100
3.75335204,2.01178000
3.76001874,2.01437400
3.76668544,2.01010200
3.77335214,2.01132200
3.78001884,2.00369300
3.78668554,2.01895200
3.79335224,2.00918600
3.80001894,2.00476100
3.80668564,2.01345900
3.81335234,2.00872800
3.82001904,2.01849400
3.82668574,2.00735500
3.83335244,2.00338700
3.84001914,2.01239100
3.84668584,2.00888100
3.85335254,2.01300100
3.86001924,2.00247200
3.86668594,2.00994900
3.87335264,2.01391600
3.88001934,2.00613400
3.88668604,2.01635800
3.89335274,2.01101700
3.90001944,2.01818900
3.90668614,2.01330600
3.91335284,2.00720200
3.92001954,2.00582900
3.92668624,2.01132200
3.93335294,2.01345900
3.94001964,2.00643900
3.94668633,2.00766000
3.95335303,2.00857600
3.96001973,2.00674500
3.96668643,2.01193300
3.97335313,2.00567700
3.98001983,2.00567700
3.98668653,2.01101700
3.99335323,2.01223800
4.00001993,2.00796500
4.00668663,2.00170900
4.01335333,2.01483200
4.02002003,2.00689700
4.02668673,2.01345900
4.03335343,2.01071200
4.04002013,2.00628700
4.04668683,2.01467900
4.05335353,2.00582900
4.06002023,2.01391600
4.06668693,2.01742600
4.07335363,2.01010200
4.08002033,2.01086400
4.08668703,2.01269600
4.09335373,2.01239100
4.10002043,2.01101700
4.10668713,2.01193300
4.11335383,2.00949100
4.12002053,2.01132200
4.12668723,2.01437400
4.13335393,2.00491400
4.14002063,2.01376400
4.14668733,2.01544200
4.15335403,2.01300100
4.16002073,2.00979600
4.16668743,2.01315400
4.17335413,2.01132200
4.18002083,2.01147500
4.18668753,2.01071200
4.19335423,2.01040700
4.20002093,2.01117000
4.20668763,2.01864700
4.21335433,2.01483200
4.22002103,2.01010200
4.22668773,2.01513700
4.23335443,2.01422200
4.24002113,2.01132200
4.24668783,2.01452700
4.25335453,2.01315400
4.26002123,2.01315400
4.26668793,2.01269600
4.27335463,2.01361100
4.28002133,2.01361100
4.28668803,2.01452700
4.29335473,2.01574800
4.30002143,2.01269600
4.30668813,2.01147500
4.31335483,2.01544200
4.32002153,2.00933900
4.32668823,2.01452700
4.33335493,2.00918600
4.34002163,2.00827100
4.34668833,2.02002000
4.35335503,2.01178000
4.36002173,2.00994900
4.36668843,2.01757900
4.37335513,2.01345900
4.38002183,2.01178000
4.38668853,2.01361100
4.39335523,2.00994900
4.40002193,2.01040700
4.40668863,2.01452700
4.41335533,2.00888100
4.42002203,2.01055900
4.42668873,2.01300100
4.43335543,2.01117000
4.44002213,2.00918600
4.44668883,2.01315400
4.45335553,2.01132200
4.46002223,2.01193300
4.46668893,2.01086400
4.47335563,2.01071200
4.48002233,2.01315400
4.48668903,2.01635800
4.49335573,2.01117000
4.50002243,2.01101700
4.50668913,2.01376400
4.51335583,2.01391600
4.52002253,2.01147500
4.52668923,2.01117000
4.53335593,2.01193300
4.54002263,2.01345900
4.54668933,2.01300100
4.55335602,2.01300100
4.56002272,2.01239100
4.56668942,2.01818900
4.57335612,2.01422200
4.58002282,2.00872800
4.58668952,2.01208500
4.59335622,2.01483200
4.60002292,2.00857600
4.60668962,2.00918600
4.61335632,2.00964400
4.62002302,2.00979600
4.62668972,2.01742600
4.63335642,2.00674500
4.64002312,2.01193300
4.64668982,2.01666300
4.65335652,2.01117000
4.66002322,2.00674500
4.66668992,2.00613400
4.67335662,2.01590000
4.68002332,2.01040700
4.68669002,2.01223800
4.69335672,2.01010200
4.70002342,2.01452700
4.70669012,2.01452700
4.71335682,2.01040700
4.72002352,2.00613400
4.72669022,2.01055900
4.73335692,2.01208500
4.74002362,2.01117000
4.74669032,2.00933900
4.75335702,2.01208500
4.76002372,2.01681600
4.76669042,2.01498500
4.77335712,2.01010200
4.78002382,2.01071200
4.78669052,2.01818900
4.79335722,2.01483200
4.80002392,2.01086400
4.80669062,2.01178000
4.81335732,2.01254300
4.82002402,2.01422200
4.82669072,2.01239100
4.83335742,2.01193300
4.84002412,2.01239100
4.84669082,2.01666300
4.85335752,2.01040700
4.86002422,2.01086400
4.86669092,2.01590000
4.87335762,2.01498500
4.88002432,2.01330600
4.88669102,2.01300100
4.89335772,2.01605300
4.90002442,2.01666300
4.90669112,2.01574800
4.91335782,2.01193300
4.92002452,2.01193300
4.92669122,2.01666300
4.93335792,2.01483200
4.94002462,2.01330600
4.94669132,2.01391600
4.95335802,2.01361100
4.96002472,2.01254300
4.96669142,2.00994900
4.97335812,2.01055900
4.98002482,2.01330600
4.98669152,2.01437400
4.99335822,2.01590000
5.00002492,2.00933900
5.00669162,2.01254300
5.01335832,2.01696800
5.02002502,2.01544200
5.02669172,2.01208500
5.03335842,2.01117000
5.04002512,2.01681600
5.04669182,2.01452700
5.05335852,2.01376400
5.06002522,2.01178000
5.06669192,2.01376400
5.07335862,2.01498500
5.08002532,2.01269600
5.08669202,2.01376400
5.09335872,2.01483200
5.10002542,2.01574800
5.10669212,2.00933900
5.11335882,2.01086400
5.12002552,2.00979600
5.12669222,2.01361100
5.13335892,2.01467900
5.14002562,2.00750800
5.14669232,2.01467900
5.15335902,2.01330600
5.16002571,2.01269600
5.16669241,2.01437400
5.17335911,2.01315400
5.18002581,2.00964400
5.18669251,2.01696800
5.19335921,2.01147500
5.20002591,2.00888100
5.20669261,2.01757900
5.21335931,2.01376400
5.22002601,2.00766000
5.22669271,2.01590000
5.23335941,2.01605300
5.24002611,2.01101700
5.24669281,2.01376400
5.25335951,2.01071200
5.26002621,2.01437400
5.26669291,2.01437400
5.27335961,2.00949100
5.28002631,2.01117000
5.28669301,2.01376400
5.29335971,2.01605300
5.30002641,2.01117000
5.30669311,2.01376400
5.31335981,2.01178000
5.32002651,2.01574800
5.32669321,2.01178000
5.33335991,2.01574800
5.34002661,2.01040700
5.34669331,2.01498500
5.35336001,2.01422200
5.36002671,2.01452700
5.36669341,2.01345900
5.37336011,2.01666300
5.38002681,2.01315400
5.38669351,2.01467900
5.39336021,2.01300100
5.40002691,2.01361100
5.40669361,2.01391600
5.41336031,2.01681600
5.42002701,2.01254300
5.42669371,2.01269600
5.43336041,2.01666300
5.44002711,2.01345900
5.44669381,2.01376400
5.45336051,2.01361100
5.46002721,2.01605300
5.46669391,2.01574800
5.47336061,2.01559500
5.48002731,2.01269600
5.48669401,2.01422200
5.49336071,2.01498500
5.50002741,2.01208500
5.50669411,2.01132200
5.51336081,2.01605300
5.52002751,2.01483200
5.52669421,2.01345900
5.53336091,2.01345900
5.54002761,2.01361100
5.54669431,2.01803600
5.55336101,2.01544200
5.56002771,2.01315400
5.56669441,2.01345900
5.57336111,2.01544200
5.58002781,2.01269600
5.58669451,2.00750800
5.59336121,2.01590000
5.60002791,2.01559500
5.60669461,2.01132200
5.61336131,2.01300100
5.62002801,2.01437400
5.62669471,2.01467900
5.63336141,2.01681600
5.64002811,2.01452700
5.64669481,2.01330600
5.65336151,2.01712100
5.66002821,2.01467900
5.66669491,2.01071200
5.67336161,2.01590000
5.68002831,2.01620500
5.68669501,2.01330600
5.69336171,2.01727300
5.70002841,2.01437400
5.70669511,2.01727300
5.71336181,2.01773100
5.72002851,2.01178000
5.72669521,2.01681600
5.73336191,2.01849400
5.74002861,2.01254300
5.74669531,2.01239100
5.75336201,2.01635800
5.76002871,2.01391600
5.76669540,2.01818900
5.77336210,2.01452700
5.78002880,2.01269600
5.78669550,2.01635800
5.79336220,2.01544200
5.80002890,2.01223800
5.80669560,2.01498500
5.81336230,2.01605300
5.82002900,2.01269600
5.82669570,2.01742600
5.83336240,2.01635800
5.84002910,2.01376400
5.84669580,2.01712100
5.85336250,2.01605300
5.86002920,2.01498500
5.86669590,2.01513700
5.87336260,2.01605300
5.88002930,2.01178000
5.88669600,2.01696800
5.89336270,2.01605300
5.90002940,2.01269600
5.90669610,2.01437400
5.91336280,2.01773100
5.92002950,2.00979600
5.92669620,2.01513700
5.93336290,2.01925700
5.94002960,2.01544200
5.94669630,2.01498500
5.95336300,2.01681600
5.96002970,2.01345900
5.96669640,2.01437400
5.97336310,2.01727300
5.98002980,2.01361100
5.98669650,2.01727300
5.99336320,2.01895200
6.00002990,2.01483200
6.00669660,2.01574800
6.01336330,2.01727300
6.02003000,2.01117000
6.02669670,2.01391600
6.03336340,2.01742600
6.04003010,2.01055900
6.04669680,2.01620500
6.05336350,2.01803600
6.06003020,2.01391600
6.06669690,2.01666300
6.07336360,2.01803600
6.08003030,2.01452700
6.08669700,2.01239100
6.09336370,2.01467900
6.10003040,2.01147500
6.10669710,2.01498500
6.11336380,2.01757900
6.12003050,2.01101700
6.12669720,2.01590000
6.13336390,2.01803600
6.14003060,2.01315400
6.14669730,2.01712100
6.15336400,2.01742600
6.16003070,2.01559500
6.16669740,2.01452700
6.17336410,2.01635800
6.18003080,2.01330600
6.18669750,2.01712100
6.19336420,2.01773100
6.20003090,2.00979600
6.20669760,2.01376400
6.21336430,2.01803600
6.22003100,2.01422200
6.22669770,2.01345900
6.23336440,2.01315400
6.24003110,2.01330600
6.24669780,2.01483200
6.25336450,2.01422200
6.26003120,2.01345900
6.26669790,2.01376400
6.27336460,2.01757900
6.28003130,2.01178000
6.28669800,2.01300100
6.29336470,2.01498500
6.30003140,2.01330600
6.30669810,2.01361100
6.31336480,2.01315400
6.32003150,2.01422200
6.32669820,2.01559500
6.33336490,2.01513700
6.34003160,2.01345900
6.34669830,2.01437400
6.35336500,2.01925700
6.36003170,2.01574800
6.36669839,2.01483200
6.37336509,2.01544200
6.38003179,2.01361100
6.38669849,2.01391600
6.39336519,2.01712100
6.40003189,2.01559500
6.40669859,2.01498500
6.41336529,2.01742600
6.42003199,2.01376400
6.42669869,2.01681600
6.43336539,2.01773100
6.44003209,2.01467900
6.44669879,2.01422200
6.45336549,2.01574800
6.46003219,2.01330600
6.46669889,2.01513700
6.47336559,2.01666300
6.48003229,2.01422200
6.48669899,2.01483200
6.49336569,2.01818900
6.50003239,2.01071200
6.50669909,2.01422200
6.51336579,2.01864700
6.52003249,2.01193300
6.52669919,2.01147500
6.53336589,2.01742600
6.54003259,2.01590000
6.54669929,2.01620500
6.55336599,2.01727300
6.56003269,2.01391600
6.56669939,2.01681600
6.57336609,2.01895200
6.58003279,2.01208500
6.58669949,2.01147500
6.59336619,2.01483200
6.60003289,2.01391600
6.60669959,2.01605300
6.61336629,2.01513700
6.62003299,2.01544200
6.62669969,2.01605300
6.63336639,2.01727300
6.64003309,2.01376400
6.64669979,2.01086400
6.65336649,2.01773100
6.66003319,2.01315400
6.66669989,2.01498500
6.67336659,2.01727300
6.68003329,2.01437400
6.68669999,2.01559500
6.69336669,2.01361100
6.70003339,2.01269600
6.70670009,2.01330600
6.71336679,2.01696800
6.72003349,2.01315400
6.72670019,2.00979600
6.73336689,2.01544200
6.74003359,2.01681600
6.74670029,2.01559500
6.75336699,2.01834200
6.76003369,2.01513700
6.76670039,2.01620500
6.77336709,2.01391600
6.78003379,2.01071200
6.78670049,2.01208500
6.79336719,2.01727300
6.80003389,2.01376400
6.80670059,2.01254300
6.81336729,2.01376400
6.82003399,2.01513700
6.82670069,2.01422200
6.83336739,2.01742600
6.84003409,2.01178000
6.84670079,2.01193300
6.85336749,2.01437400
6.86003419,2.01300100
6.86670089,2.01040700
6.87336759,2.01635800
6.88003429,2.01590000
6.88670099,2.01696800
6.89336769,2.01483200
6.90003439,2.01437400
6.90670109,2.01742600
6.91336779,2.01834200
6.92003449,2.01147500
6.92670119,2.01117000
6.93336789,2.01773100
6.94003459,2.01315400
6.94670129,2.01101700
6.95336799,2.01345900
6.96003469,2.01010200
6.96670139,2.01590000
6.97336808,2.01223800
6.98003478,2.00918600
6.98670148,2.01239100
6.99336818,2.01544200
7.00003488,2.01055900
7.00670158,2.01071200
7.01336828,2.01422200
7.02003498,2.01147500
7.02670168,2.01300100
7.03336838,2.01254300
7.04003508,2.00918600
7.04670178,2.01452700
7.05336848,2.01803600
7.06003518,2.01361100
7.06670188,2.00933900
7.07336858,2.01559500
7.08003528,2.01223800
7.08670198,2.00979600
7.09336868,2.01040700
7.10003538,2.00705000
7.10670208,2.00964400
7.11336878,2.01544200
7.12003548,2.00964400
7.12670218,2.00476100
7.13336888,2.01559500
7.14003558,2.01193300
7.14670228,2.00964400
7.15336898,2.01117000
7.16003568,2.00766000
7.16670238,2.01208500
7.17336908,2.01147500
7.18003578,2.00811800
7.18670248,2.00735500
7.19336918,2.01300100
7.20003588,2.01773100
7.20670258,2.00491400
7.21336928,2.01101700
7.22003598,2.01315400
7.22670268,2.01422200
7.23336938,2.01254300
7.24003608,2.00415100
7.24670278,2.01086400
7.25336948,2.01681600
7.26003618,2.00689700
7.26670288,2.00216700
7.27336958,2.00994900
7.28003628,2.01544200
7.28670298,2.00247200
7.29336968,2.00888100
7.30003638,2.00796500
7.30670308,2.01773100
7.31336978,2.01269600
7.32003648,2.00323500
7.32670318,2.01010200
7.33336988,2.01437400
7.34003658,2.01330600
7.34670328,2.00796500
7.35336998,2.01254300
7.36003668,2.01498500
7.36670338,2.01193300
7.37337008,2.01071200
7.38003678,2.00582900
7.38670348,2.01437400
7.39337018,2.01635800
7.40003688,2.00674500
7.40670358,2.00705000
7.41337028,2.01391600
7.42003698,2.01452700
7.42670368,2.00613400
7.43337038,2.01055900
7.44003708,2.00918600
7.44670378,2.00872800
7.45337048,2.01239100
7.46003718,2.00918600
7.46670388,2.00674500
7.47337058,2.01437400
7.48003728,2.01452700
7.48670398,2.00643900
7.49337068,2.00872800
7.50003738,2.01178000
7.50670408,2.00994900
7.51337078,2.01132200
7.52003748,2.01040700
7.52670418,2.01452700
7.53337088,2.01681600
7.54003758,2.01223800
7.54670428,2.01147500
7.55337098,2.01452700
7.56003768,2.01117000
7.56670438,2.01147500
7.57337108,2.01147500
7.58003777,2.01178000
7.58670447,2.01849400
7.59337117,2.01666300
7.60003787,2.01437400
7.60670457,2.01452700
7.61337127,2.01941000
7.62003797,2.01559500
7.62670467,2.01117000
7.63337137,2.01376400
7.64003807,2.01773100
7.64670477,2.01666300
7.65337147,2.01696800
7.66003817,2.01055900
7.66670487,2.01559500
7.67337157,2.01971500
7.68003827,2.01101700
7.68670497,2.01223800
7.69337167,2.01834200
7.70003837,2.01666300
7.70670507,2.01513700
7.71337177,2.01376400
7.72003847,2.01055900
7.72670517,2.01437400
7.73337187,2.01895200
7.74003857,2.01300100
7.74670527,2.01498500
7.75337197,2.01834200
7.76003867,2.01269600
7.76670537,2.01300100
7.77337207,2.01559500
7.78003877,2.01239100
7.78670547,2.01635800
7.79337217,2.01483200
7.80003887,2.01376400
7.80670557,2.01330600
7.81337227,2.01773100
7.82003897,2.01498500
7.82670567,2.01132200
7.83337237,2.01467900
7.84003907,2.01437400
7.84670577,2.01239100
7.85337247,2.01345900
7.86003917,2.01300100
7.86670587,2.01483200
7.87337257,2.01834200
7.88003927,2.01483200
7.88670597,2.01300100
7.89337267,2.01757900
7.90003937,2.01727300
7.90670607,2.01178000
7.91337277,2.01559500
7.92003947,2.01330600
7.92670617,2.01605300
7.93337287,2.01376400
7.94003957,2.01101700
7.94670627,2.01315400
7.95337297,2.01666300
7.96003967,2.01620500
7.96670637,2.00964400
7.97337307,2.01956200
7.98003977,2.01666300
7.98670647,2.01422200
7.99337317,2.01605300
8.00003987,2.01254300
8.00670657,2.01544200
8.01337327,2.01513700
8.02003997,2.01223800
8.02670667,2.01376400
8.03337337,2.01559500
8.04004007,2.01605300
8.04670677,2.01040700
8.05337347,2.01757900
8.06004017,2.01559500
8.06670687,2.01620500
8.07337357,2.01605300
8.08004027,2.01269600
8.08670697,2.01483200
8.09337367,2.01742600
8.10004037,2.01345900
8.10670707,2.01254300
8.11337377,2.01269600
8.12004047,2.01345900
8.12670717,2.01315400
8.13337387,2.01590000
8.14004057,2.01574800
8.14670727,2.01696800
8.15337397,2.01605300
8.16004067,2.01467900
8.16670737,2.01681600
8.17337407,2.01818900
8.18004077,2.01620500
8.18670746,2.01391600
8.19337416,2.01361100
8.20004086,2.01437400
8.20670756,2.01422200
8.21337426,2.01330600
8.22004096,2.01666300
8.22670766,2.01727300
8.23337436,2.01757900
8.24004106,2.01574800
8.24670776,2.01422200
8.25337446,2.01773100
8.26004116,2.01422200
8.26670786,2.01132200
8.27337456,2.01178000
8.28004126,2.01559500
8.28670796,2.01391600
8.29337466,2.01452700
8.30004136,2.01330600
8.30670806,2.01254300
8.31337476,2.01895200
8.32004146,2.01269600
8.32670816,2.01315400
8.33337486,2.01467900
8.34004156,2.01071200
8.34670826,2.01239100
8.35337496,2.01208500
8.36004166,2.00949100
8.36670836,2.01269600
8.37337506,2.01574800
8.38004176,2.01147500
8.38670846,2.01330600
8.39337516,2.01345900
8.40004186,2.01422200
8.40670856,2.01559500
8.41337526,2.01452700
8.42004196,2.01269600
8.42670866,2.01452700
8.43337536,2.01269600
8.44004206,2.01300100
8.44670876,2.01132200
8.45337546,2.01590000
8.46004216,2.01361100
8.46670886,2.01178000
8.47337556,2.01757900
8.48004226,2.01437400
8.48670896,2.01376400
8.49337566,2.01178000
8.50004236,2.01254300
8.50670906,2.01147500
8.51337576,1.96874900
8.52004246,2.00949100
8.52670916,2.01086400
8.53337586,2.01498500
8.54004256,2.01437400
8.54670926,2.01254300
8.55337596,2.01330600
8.56004266,2.01391600
8.56670936,2.01345900
8.57337606,2.01422200
8.58004276,2.01483200
8.58670946,2.01330600
8.59337616,2.01452700
8.60004286,2.01483200
8.60670956,2.01376400
8.61337626,2.01422200
8.62004296,2.01559500
8.62670966,2.01376400
8.63337636,2.01269600
8.64004306,2.01467900
8.64670976,2.01605300
8.65337646,2.01132200
8.66004316,2.01345900
8.66670986,2.01452700
8.67337656,2.01178000
8.68004326,2.01437400
8.68670996,2.01437400
8.69337666,2.01193300
8.70004336,2.01544200
8.70671006,2.01498500
8.71337676,2.01040700
8.72004346,2.01422200
8.72671016,2.01345900
8.73337686,2.01178000
8.74004356,2.01422200
8.74671026,2.01193300
8.75337696,2.01147500
8.76004366,2.01544200
8.76671036,2.01513700
8.77337706,2.01239100
8.78004376,2.01544200
8.78671046,2.01300100
8.79337715,2.01391600
8.80004385,2.01452700
8.80671055,2.01239100
8.81337725,2.01498500
8.82004395,2.01361100
8.82671065,2.00994900
8.83337735,2.01467900
8.84004405,2.01254300
8.84671075,2.01147500
8.85337745,2.01605300
8.86004415,2.01040700
8.86671085,2.01086400
8.87337755,2.01376400
8.88004425,2.01254300
8.88671095,2.01178000
8.89337765,2.01345900
8.90004435,2.01376400
8.90671105,2.00918600
8.91337775,2.01330600
8.92004445,2.01223800
8.92671115,2.00949100
8.93337785,2.01422200
8.94004455,2.00933900
8.94671125,2.01193300
8.95337795,2.01254300
8.96004465,2.00766000
8.96671135,2.01117000
8.97337805,2.00766000
8.98004475,2.01620500
8.98671145,2.01086400
8.99337815,2.00201400
9.00004485,2.01925700
9.00671155,2.00552400
9.01337825,2.01178000
9.02004495,2.01422200
9.02671165,2.00293000
9.03337835,2.01925700
9.04004505,2.00811800
9.04671175,2.00842300
9.05337845,2.01361100
9.06004515,2.00827100
9.06671185,2.01574800
9.07337855,2.00735500
9.08004525,2.01086400
9.08671195,2.01239100
9.09337865,2.00445600
9.10004535,2.01513700
9.10671205,2.00369300
9.11337875,2.01483200
9.12004545,2.01055900
9.12671215,2.00766000
9.13337885,2.01391600
9.14004555,2.00537100
9.14671225,2.01178000
9.15337895,2.00918600
9.16004565,2.01361100
9.16671235,2.00750800
9.17337905,2.00750800
9.18004575,2.01223800
9.18671245,2.00949100
9.19337915,2.01223800
9.20004585,2.01712100
9.20671255,2.00705000
9.21337925,2.01330600
9.22004595,2.00918600
9.22671265,2.00827100
9.23337935,2.01269600
9.24004605,2.00598200
9.24671275,2.00918600
9.25337945,2.01071200
9.26004615,2.00216700
9.26671285,2.01086400
9.27337955,2.00689700
9.28004625,2.01666300
9.28671295,2.01345900
9.29337965,2.01010200
9.30004635,2.01391600
9.30671305,2.00186200
9.31337975,2.01574800
9.32004645,2.00827100
9.32671315,2.01010200
9.33337985,2.01635800
9.34004655,2.00705000
9.34671325,2.00949100
9.35337995,2.00796500
9.36004665,2.01376400
9.36671335,2.00811800
9.37338005,2.00918600
9.38004675,2.01391600
9.38671345,2.00460800
9.39338015,2.01513700
9.40004684,2.01101700
9.40671354,2.00811800
9.41338024,2.01254300
9.42004694,2.00857600
9.42671364,2.01681600
9.43338034,2.01101700
9.44004704,2.01544200
9.44671374,2.01513700
9.45338044,2.00949100
9.46004714,2.01727300
9.46671384,2.00643900
9.47338054,2.01452700
9.48004724,2.01117000
9.48671394,2.00796500
9.49338064,2.01681600
9.50004734,2.00506600
9.50671404,2.01254300
9.51338074,2.01055900
9.52004744,2.01086400
9.52671414,2.01055900
9.53338084,2.00750800
9.54004754,2.01895200
9.54671424,2.00872800
9.55338094,2.00735500
9.56004764,2.01208500
9.56671434,2.00613400
9.57338104,2.01178000
9.58004774,2.00827100
9.58671444,2.01254300
9.59338114,2.01315400
9.60004784,2.01300100
9.60671454,2.01315400
9.61338124,2.01086400
9.62004794,2.01513700
9.62671464,2.01101700
9.63338134,2.01391600
9.64004804,2.01239100
9.64671474,2.01452700
9.65338144,2.00979600
9.66004814,2.01193300
9.66671484,2.00872800
9.67338154,2.01513700
9.68004824,2.01452700
9.68671494,2.00720200
9.69338164,2.01498500
9.70004834,2.01391600
9.70671504,2.01147500
9.71338174,2.01483200
9.72004844,2.01223800
9.72671514,2.01147500
9.73338184,2.01391600
9.74004854,2.01345900
9.74671524,2.01254300
9.75338194,2.01345900
9.76004864,2.01422200
9.76671534,2.00964400
9.77338204,2.01467900
9.78004874,2.01437400
9.78671544,2.01254300
9.79338214,2.01681600
9.80004884,2.01223800
9.80671554,2.00994900
9.81338224,2.01178000
9.82004894,2.01452700
9.82671564,2.01010200
9.83338234,2.01361100
9.84004904,2.01513700
9.84671574,2.01330600
9.85338244,2.01101700
9.86004914,2.01452700
9.86671584,2.01071200
9.87338254,2.01010200
9.88004924,2.01193300
9.88671594,2.00766000
9.89338264,2.01147500
9.90004934,2.00933900
9.90671604,2.01147500
9.91338274,2.00796500
9.92004944,2.01437400
9.92671614,2.00964400
9.93338284,2.01544200
9.94004954,2.01300100
9.94671624,2.01376400
9.95338294,2.01254300
9.96004964,2.01467900
9.96671634,2.00796500
9.97338304,2.01437400
9.98004974,2.01483200
9.98671644,2.01040700
9.99338314,2.01178000
10.00004984,2.01239100
10.00671653,2.01559500
10.01338323,2.01132200
10.02004993,2.01467900
10.02671663,2.00933900
10.03338333,2.01376400
10.04005003,2.01422200
10.04671673,2.00979600
10.05338343,2.01193300
10.06005013,2.01361100
10.06671683,2.01254300
10.07338353,2.01269600
10.08005023,2.01712100
10.08671693,2.01254300
10.09338363,2.01300100
10.10005033,2.01544200
10.10671703,2.01223800
10.11338373,2.01086400
10.12005043,2.01483200
10.12671713,2.01269600
10.13338383,2.01101700
10.14005053,2.01712100
10.14671723,2.01132200
10.15338393,2.01178000
10.16005063,2.01452700
10.16671733,2.01391600
10.17338403,2.01117000
10.18005073,2.01666300
10.18671743,2.01330600
10.19338413,2.00979600
10.20005083,2.01727300
10.20671753,2.00796500
10.21338423,2.01239100
10.22005093,2.01635800
10.22671763,2.00994900
10.23338433,2.01223800
10.24005103,2.01635800
10.24671773,2.01315400
10.25338443,2.01071200
10.26005113,2.01635800
10.26671783,2.01040700
10.27338453,2.01315400
10.28005123,2.01635800
10.28671793,2.00964400
10.29338463,2.01300100
10.30005133,2.01254300
10.30671803,2.00888100
10.31338473,2.01269600
10.32005143,2.01208500
10.32671813,2.01391600
10.33338483,2.01300100
10.34005153,2.01223800
10.34671823,2.01467900
10.35338493,2.00872800
10.36005163,2.01345900
10.36671833,2.01269600
10.37338503,2.01208500
10.38005173,2.01269600
10.38671843,2.01208500
10.39338513,2.01223800
10.40005183,2.01239100
10.40671853,2.01345900
10.41338523,2.01055900
10.42005193,2.01345900
10.42671863,2.01467900
10.43338533,2.01178000
10.44005203,2.01345900
10.44671873,2.01055900
10.45338543,2.01376400
10.46005213,2.01376400
10.46671883,2.01193300
10.47338553,2.01040700
10.48005223,2.01361100
10.48671893,2.01101700
10.49338563,2.01239100
10.50005233,2.01223800
10.50671903,2.01101700
10.51338573,2.01513700
10.52005243,2.01361100
10.52671913,2.00949100
10.53338583,2.01422200
10.54005253,2.01361100
10.54671923,2.01132200
10.55338593,2.01437400
10.56005263,2.01117000
10.56671933,2.01117000
10.57338603,2.01483200
10.58005273,2.01254300
10.58671943,2.01010200
10.59338613,2.01467900
10.60005283,2.01422200
10.60671953,2.01178000
10.61338622,2.01467900
10.62005292,2.01681600
10.62671962,2.01147500
10.63338632,2.01361100
10.64005302,2.01467900
10.64671972,2.01330600
10.65338642,2.01605300
10.66005312,2.01422200
10.66671982,2.01101700
10.67338652,2.01452700
10.68005322,2.01834200
10.68671992,2.01132200
10.69338662,2.01345900
10.70005332,2.01818900
10.70672002,2.00994900
10.71338672,2.01269600
10.72005342,2.01757900
10.72672012,2.01223800
10.73338682,2.01467900
10.74005352,2.01635800
10.74672022,2.00888100
10.75338692,2.01345900
10.76005362,2.01727300
10.76672032,2.01040700
10.77338702,2.01452700
10.78005372,2.01620500
10.78672042,2.00750800
10.79338712,2.01254300
10.80005382,2.01803600
10.80672052,2.00918600
10.81338722,2.01452700
10.82005392,2.01544200
10.82672062,2.01071200
10.83338732,2.01452700
10.84005402,2.01773100
10.84672072,2.01208500
10.85338742,2.01376400
10.86005412,2.01818900
10.86672082,2.01269600
10.87338752,2.01254300
10.88005422,2.01620500
10.88672092,2.01437400
10.89338762,2.01239100
10.90005432,2.01727300
10.90672102,2.01223800
10.91338772,2.01345900
10.92005442,2.01986800
10.92672112,2.01300100
10.93338782,2.01239100
10.94005452,2.01757900
10.94672122,2.01544200
10.95338792,2.01147500
10.96005462,2.01727300
10.96672132,2.01620500
10.97338802,2.01193300
10.98005472,2.01879900
10.98672142,2.01635800
10.99338812,2.01132200
11.00005482,2.01849400
11.00672152,2.01513700
11.01338822,2.01040700
11.02005492,2.01635800
11.02672162,2.01559500
11.03338832,2.01147500
11.04005502,2.01681600
11.04672172,2.01574800
11.05338842,2.01101700
11.06005512,2.01727300
11.06672182,2.01574800
11.07338852,2.01208500
11.08005522,2.01712100
11.08672192,2.01467900
11.09338862,2.01254300
11.10005532,2.01620500
11.10672202,2.01483200
11.11338872,2.01361100
11.12005542,2.01590000
11.12672212,2.01590000
11.13338882,2.01559500
11.14005552,2.01635800
11.14672222,2.01376400
11.15338892,2.01086400
11.16005562,2.01590000
11.16672232,2.01757900
11.17338902,2.01269600
11.18005572,2.01422200
11.18672242,2.01315400
11.19338912,2.01513700
11.20005582,2.01376400
11.20672252,2.01590000
11.21338922,2.01605300
11.22005591,2.01437400
11.22672261,2.01422200
11.23338931,2.01376400
11.24005601,2.01483200
11.24672271,2.01727300
11.25338941,2.01315400
11.26005611,2.01513700
11.26672281,2.01498500
11.27338951,2.01498500
11.28005621,2.01422200
11.28672291,2.01773100
11.29338961,2.01559500
11.30005631,2.01467900
11.30672301,2.01391600
11.31338971,2.01513700
11.32005641,2.01467900
11.32672311,2.01620500
11.33338981,2.01483200
11.34005651,2.01437400
11.34672321,2.01483200
11.35338991,2.01300100
11.36005661,2.01513700
11.36672331,2.01178000
11.37339001,2.01513700
11.38005671,2.01193300
11.38672341,2.01010200
11.39339011,2.01483200
11.40005681,2.01422200
11.40672351,2.01422200
11.41339021,2.01590000
11.42005691,2.01361100
11.42672361,2.01544200
11.43339031,2.01498500
11.44005701,2.01208500
11.44672371,2.01742600
11.45339041,2.01635800
11.46005711,2.01452700
11.46672381,2.00888100
11.47339051,2.01467900
11.48005721,2.01544200
11.48672391,2.01254300
11.49339061,2.01010200
11.50005731,2.01437400
11.50672401,2.01467900
11.51339071,2.01544200
11.52005741,2.01467900
11.52672411,2.01605300
11.53339081,2.01132200
11.54005751,2.01345900
11.54672421,2.01498500
11.55339091,2.01559500
11.56005761,2.01590000
11.56672431,2.01498500
11.57339101,2.01040700
11.58005771,2.01895200
11.58672441,2.01239100
11.59339111,2.01345900
11.60005781,2.01742600
11.60672451,2.01422200
11.61339121,2.01620500
11.62005791,2.01849400
11.62672461,2.01422200
11.63339131,2.01132200
11.64005801,1.99636800
11.64672471,2.01559500
11.65339141,2.01422200
11.66005811,2.01483200
11.66672481,2.01391600
11.67339151,2.01559500
11.68005821,2.01544200
11.68672491,2.01391600
11.69339161,2.01345900
11.70005831,2.01681600
11.70672501,2.01666300
11.71339171,2.01513700
11.72005841,2.01681600
11.72672511,2.01574800
11.73339181,2.01666300
11.74005851,2.01483200
11.74672521,2.01422200
11.75339191,2.01208500
11.76005861,2.01330600
11.76672531,2.01071200
11.77339201,2.00888100
11.78005871,2.01498500
11.78672541,2.01422200
11.79339211,2.01330600
11.80005881,2.01132200
11.80672551,2.01574800
11.81339221,2.01559500
11.82005891,2.01376400
11.82672560,2.01590000
11.83339230,2.01117000
11.84005900,2.01300100
11.84672570,2.01574800
11.85339240,2.01147500
11.86005910,2.01117000
11.86672580,2.01422200
11.87339250,2.01223800
11.88005920,2.01132200
11.88672590,2.01498500
11.89339260,2.01101700
11.90005930,2.01467900
11.90672600,2.01254300
11.91339270,2.01132200
11.92005940,2.01727300
11.92672610,2.01361100
11.93339280,2.01422200
11.94005950,2.01712100
11.94672620,2.01147500
11.95339290,2.01132200
11.96005960,2.01330600
11.96672630,2.01681600
11.97339300,2.01269600
11.98005970,2.01147500
11.98672640,2.01483200
11.99339310,2.00720200
12.00005980,2.01559500
12.00672650,2.00842300
12.01339320,2.01300100
12.02005990,2.01452700
12.02672660,2.01681600
12.03339330,2.01193300
12.04006000,2.01605300
12.04672670,2.01590000
12.05339340,2.01467900
12.06006010,2.01178000
12.06672680,2.01452700
12.07339350,2.01254300
12.08006020,2.01452700
12.08672690,2.01330600
12.09339360,2.01178000
12.10006030,2.01330600
12.10672700,2.01208500
12.11339370,2.01239100
12.12006040,2.01452700
12.12672710,2.01498500
12.13339380,2.01223800
12.14006050,2.01132200
12.14672720,2.01315400
12.15339390,2.01315400
12.16006060,2.01422200
12.16672730,2.01513700
12.17339400,2.00964400
12.18006070,2.01574800
12.18672740,2.01574800
12.19339410,2.01513700
12.20006080,2.01345900
12.20672750,2.01544200
12.21339420,2.01193300
12.22006090,2.01376400
12.22672760,2.01391600
12.23339430,2.01132200
12.24006100,2.01696800
12.24672770,2.01620500
12.25339440,2.01498500
12.26006110,2.01559500
